time displacement velocity acceleration root point displacement root point velocity root point acceleration relative displacement relative velocity relative accleration reaction
0.0 0.0 0.0 0.0 0.0 0.0 0.0 0.0 0.0 0.0 0.0
0.01 0.0003364494036092408 0.0637063959496786 7.963299493709825 0.0 0.0 0.0 0.0003364494036092408 0.0637063959496786 7.963299493709825 0.021378015013579887
0.02 0.00133740405887045 0.13684958659403018 7.152073957116491 0.0 0.0 0.0 0.00133740405887045 0.13684958659403018 7.152073957116491 0.07962494553119215
0.03 0.0028861680847129703 0.17479199945208615 2.954783117977874 0.0 0.0 0.0 0.0028861680847129703 0.17479199945208615 2.954783117977874 0.1662890280596081
0.04 0.004545719123394452 0.15963296923763573 -2.6335745563007738 0.0 0.0 0.0 0.004545719123394452 0.15963296923763573 -2.6335745563007738 0.25658489612064905
0.05 0.00577365606020986 0.08847563262214818 -8.236273437860751 0.0 0.0 0.0 0.00577365606020986 0.08847563262214818 -8.236273437860751 0.3206394408819254
0.06 0.0060606179111087465 -0.029102401814126475 -12.638185945069145 0.0 0.0 0.0 0.0060606179111087465 -0.029102401814126475 -12.638185945069145 0.33096496958264277
0.07 0.005044444050745683 -0.17313927569669307 -14.845062749053538 0.0 0.0 0.0 0.005044444050745683 -0.17313927569669307 -14.845062749053538 0.2686224606203379
0.08 0.002596811593909999 -0.31666428186956225 -14.229360084345263 0.0 0.0 0.0 0.002596811593909999 -0.31666428186956225 -14.229360084345263 0.12781662272808536
0.09 -0.0011298352884658105 -0.43027832000776967 -10.644414746189618 0.0 0.0 0.0 -0.0011298352884658105 -0.43027832000776967 -10.644414746189618 -0.08174167158693779
0.1 -0.005703849414876915 -0.4873042784091077 -4.467141113619853 0.0 0.0 0.0 -0.005703849414876915 -0.4873042784091077 -4.467141113619853 -0.3351580602245202
0.11 -0.01046603722255363 -0.46869293790594896 3.44320284129981 0.0 0.0 0.0 -0.01046603722255363 -0.46869293790594896 3.44320284129981 -0.5954126960562891
0.12 -0.014624933535401398 -0.36687668716931043 11.866230631754863 0.0 0.0 0.0 -0.014624933535401398 -0.36687668716931043 11.866230631754863 -0.818761433355847
0.13 -0.01738189488776437 -0.18790782695971234 19.40454986826105 0.0 0.0 0.0 -0.01738189488776437 -0.18790782695971234 19.40454986826105 -0.9616930567362671
0.14 -0.018066862784524157 0.04852969622927053 24.703552931557596 0.0 0.0 0.0 -0.018066862784524157 0.04852969622927053 24.703552931557596 -0.988373720448913
0.15 -0.01626315738770593 0.31132490136925045 26.67351240960809 0.0 0.0 0.0 -0.01626315738770593 0.31132490136925045 26.67351240960809 -0.8773879741049305
0.16 -0.011900482198850154 0.5621074677721463 24.679442697959956 0.0 0.0 0.0 -0.011900482198850154 0.5621074677721463 24.679442697959956 -0.6266464954454352
0.17 -0.005299409742215957 0.7608120758669618 18.66821533736195 0.0 0.0 0.0 -0.005299409742215957 0.7608120758669618 18.66821533736195 -0.25556928067582063
0.18 0.0028425598946814224 0.8718375402672632 9.2111292156972 0.0 0.0 0.0 0.0028425598946814224 0.8718375402672632 9.2111292156972 0.1959620858776765
0.19 0.011524682014801944 0.8698783484787737 -2.5476812774855047 0.0 0.0 0.0 0.011524682014801944 0.8698783484787737 -2.5476812774855047 0.6719127189016141
0.2 0.019568588785155456 0.7445212705091357 -15.032714426833362 0.0 0.0 0.0 0.019568588785155456 0.7445212705091357 -15.032714426833362 1.1071937015334938
0.21 0.025779761762287638 0.502851355757014 -26.450560737306876 0.0 0.0 0.0 0.025779761762287638 0.502851355757014 -26.450560737306876 1.4366354997910538
0.22 0.029122582301023624 0.16958078138393573 -35.04618161230807 0.0 0.0 0.0 0.029122582301023624 0.16958078138393573 -35.04618161230807 1.6045919035087863
0.23 0.028883587217822766 -0.21543607690242308 -39.365561882717834 0.0 0.0 0.0 0.028883587217822766 -0.21543607690242308 -39.365561882717834 1.5737770276157108
0.24 0.024798102294037897 -0.6020566302857635 -38.4861787022381 0.0 0.0 0.0 0.024798102294037897 -0.6020566302857635 -38.4861787022381 1.3319853437889528
0.25 0.017119654804159463 -0.9364705596814249 -32.18019649889815 0.0 0.0 0.0 0.017119654804159463 -0.9364705596814249 -32.18019649889815 0.8955930271667177
0.26 0.006618980187666869 -1.1687026680518844 -20.9839644215829 0.0 0.0 0.0 0.006618980187666869 -1.1687026680518844 -20.9839644215829 0.30915836095938776
0.27 -0.0054909374446767915 -1.259951586728432 -6.160123729172751 0.0 0.0 0.0 -0.0054909374446767915 -1.259951586728432 -6.160123729172751 -0.35902587308113637
0.28 -0.017696837588650222 -1.1887013381466407 10.446312005017106 0.0 0.0 0.0 -0.017696837588650222 -1.1887013381466407 10.446312005017106 -1.0249978665404371
0.29 -0.02837729853353546 -0.9546785804481284 26.64126671105977 0.0 0.0 0.0 -0.02837729853353546 -0.9546785804481284 26.64126671105977 -1.5998424932943631
0.3 -0.036020248282580956 -0.5800012563183048 40.174348838463 0.0 0.0 0.0 -0.036020248282580956 -0.5800012563183048 40.174348838463 -2.0016702711245555
0.31 -0.03943647669736505 -0.10723921996192909 49.05166733493122 0.0 0.0 0.0 -0.03943647669736505 -0.10723921996192909 49.05166733493122 -2.1672350214347746
0.32 -0.03793910122728645 0.40546619714148163 51.825260304193534 0.0 0.0 0.0 -0.03793910122728645 0.40546619714148163 51.825260304193534 -2.061549475223608
0.33 -0.031462498958474236 0.8916576938520957 47.817622012778386 0.0 0.0 0.0 -0.031462498958474236 0.8916576938520957 47.817622012778386 -1.684072563975946
0.34 -0.020601622111184523 1.2852741616731034 37.247652974431354 0.0 0.0 0.0 -0.020601622111184523 1.2852741616731034 37.247652974431354 -1.0704643289192846
0.35 -0.006562942436772336 1.5296665084985208 21.237130109569353 0.0 0.0 0.0 -0.006562942436772336 1.5296665084985208 21.237130109569353 -0.2894814744172952
0.36 0.008969832280339207 1.5856833720364139 1.6928254148442838 0.0 0.0 0.0 0.008969832280339207 1.5856833720364139 1.6928254148442838 0.5647573390446737
0.37 0.024040268777640154 1.4376812604938933 -18.923470296526126 0.0 0.0 0.0 0.024040268777640154 1.4376812604938933 -18.923470296526126 1.3842612750607288
0.38 0.03666877366526152 1.0965631582403481 -37.90889520756163 0.0 0.0 0.0 0.03666877366526152 1.0965631582403481 -37.90889520756163 2.060990765345345
0.39 0.045115010756835876 0.5993298785053623 -52.67693616498283 0.0 0.0 0.0 0.045115010756835876 0.5993298785053623 -52.67693616498283 2.5012252142085574
0.4 0.048118135203498474 0.00509021529020981 -61.11072386064836 0.0 0.0 0.0 0.048118135203498474 0.00509021529020981 -61.11072386064836 2.638551503111171
0.41 0.04508168012282598 -0.6120423090994046 -61.86388458353971 0.0 0.0 0.0 0.04508168012282598 -0.6120423090994046 -61.86388458353971 2.443674574915976
0.42 0.03617637654287909 -1.1723022218746066 -54.56651795101533 0.0 0.0 0.0 0.03617637654287909 -1.1723022218746066 -54.56651795101533 1.9296248236398286
0.43 0.022344447902873047 -1.6006808733296989 -39.9057019441327 0.0 0.0 0.0 0.022344447902873047 -1.6006808733296989 -39.9057019441327 1.151514758341363
0.44 0.005201697728952417 -1.837021934128091 -19.566207113765827 0.0 0.0 0.0 0.005201697728952417 -1.837021934128091 -19.566207113765827 0.2007060775085688
0.45 -0.013152668037040906 -1.8444399473294881 3.9643001282667947 0.0 0.0 0.0 -0.013152668037040906 -1.8444399473294881 3.9643001282667947 -0.8060050260481093
0.46 -0.03039589852640368 -1.6148885005994806 27.702855809184243 0.0 0.0 0.0 -0.03039589852640368 -1.6148885005994806 27.702855809184243 -1.7408919872302897
0.47 -0.04427871641426991 -1.1710577029489446 48.55313575402096 0.0 0.0 0.0 -0.04427871641426991 -1.1710577029489446 48.55313575402096 -2.481670675330071
0.48 -0.052921158574086004 -0.5642523890589491 63.71238029774419 0.0 0.0 0.0 -0.052921158574086004 -0.5642523890589491 63.71238029774419 -2.927622734513847
0.49 -0.055068070340729615 0.13156833397693635 71.04949530504965 0.0 0.0 0.0 -0.055068070340729615 0.13156833397693635 71.04949530504965 -3.0133301534192656
0.5 -0.050269467755274175 0.8288930111332006 69.40321081827062 0.0 0.0 0.0 -0.050269467755274175 0.8288930111332006 69.40321081827062 -2.718145838509556
0.51 -0.03896010387083707 1.437769754997146 58.758790278425515 0.0 0.0 0.0 -0.03896010387083707 1.437769754997146 58.758790278425515 -2.070045086508128
0.52 -0.022425316331319993 1.877504493402575 40.277144731072276 0.0 0.0 0.0 -0.022425316331319993 1.877504493402575 40.277144731072276 -1.1432148877497568
0.53 -0.002654968252814275 2.087413627421246 16.169355569565777 0.0 0.0 0.0 -0.002654968252814275 2.087413627421246 16.169355569565777 -0.04955088244042938
0.54 0.017897899898445528 2.0351926929051274 -10.569955706906242 0.0 0.0 0.0 0.017897899898445528 2.0351926929051274 -10.569955706906242 1.0749607153054042
0.55 0.03662418068191859 1.7217490676262874 -36.53796423312842 0.0 0.0 0.0 0.03662418068191859 1.7217490676262874 -36.53796423312842 2.0873042839004055
0.56 0.051092782856574225 1.1817913822273949 -58.360219616579464 0.0 0.0 0.0 0.051092782856574225 1.1817913822273949 -58.360219616579464 2.855779687608425
0.57 0.05936857646197451 0.48001465615964956 -73.1320358543233 0.0 0.0 0.0 0.05936857646197451 0.48001465615964956 -73.1320358543233 3.277259721593406
0.58 0.06027236907402099 -0.296702560482298 -78.80664311666261 0.0 0.0 0.0 0.06027236907402099 -0.296702560482298 -78.80664311666261 3.291085678546385
0.59 0.053547892323416287 -1.0501406347161106 -74.47809850006094 0.0 0.0 0.0 0.053547892323416287 -1.0501406347161106 -74.47809850006094 2.887724466895974
0.6 0.03991231163763016 -1.683256656615555 -60.519978112415316 0.0 0.0 0.0 0.03991231163763016 -1.683256656615555 -60.519978112415316 2.110962240886946
0.61 0.02098158699347208 -2.112770600557555 -38.559248464646224 0.0 0.0 0.0 0.02098158699347208 -2.112770600557555 -38.559248464646224 1.0532329672264265
0.62 -0.0009217901484893006 -2.280177752783381 -11.286081912066726 0.0 0.0 0.0 -0.0009217901484893006 -2.280177752783381 -11.286081912066726 -0.15542993046970388
0.63 -0.023055687330465122 -2.1597255415681773 17.878046879917182 0.0 0.0 0.0 -0.023055687330465122 -2.1597255415681773 17.878046879917182 -1.3634907112415386
0.64 -0.04260415063321805 -1.7622677200716377 45.21271596708818 0.0 0.0 0.0 -0.04260415063321805 -1.7622677200716377 45.21271596708818 -2.417049894342641
0.65 -0.057038228997088734 -1.1344315826982678 67.17633817989918 0.0 0.0 0.0 -0.057038228997088734 -1.1344315826982678 67.17633817989918 -3.179589948714496
0.66 -0.06444527042022097 -0.35313778767220283 80.86763983328332 0.0 0.0 0.0 -0.06444527042022097 -0.35313778767220283 80.86763983328332 -3.5497785153736365
0.67 -0.06378358388424125 0.48388084422986966 84.41041902943823 0.0 0.0 0.0 -0.06378358388424125 0.48388084422986966 84.41041902943823 -3.474995385538374
0.68 -0.055028454437440595 1.270385044565446 77.21042028458749 0.0 0.0 0.0 -0.055028454437440595 1.270385044565446 77.21042028458749 -2.958772444754857
0.69 -0.03918914322709279 1.9051997327062726 60.04923094645645 0.0 0.0 0.0 -0.03918914322709279 1.9051997327062726 60.04923094645645 -2.0611015354370092
0.7 -0.01819297403514673 2.305305830111289 35.00095443901295 0.0 0.0 0.0 -0.01819297403514673 2.305305830111289 35.00095443901295 -0.891476698161976
0.71 0.00535021198107769 2.4167506394786265 5.180362561163942 0.0 0.0 0.0 0.00535021198107769 2.4167506394786265 5.180362561163942 0.40452265233850654
0.72 0.028474292638383872 2.221937675165858 -25.646711179387044 0.0 0.0 0.0 0.028474292638383872 2.221937675165858 -25.646711179387044 1.6634545984202171
0.73 0.04823277055775131 1.7423106536305846 -53.54169989706242 0.0 0.0 0.0 0.04823277055775131 1.7423106536305846 -53.54169989706242 2.7247490997485113
0.74 0.062076435494888955 1.0360332325411319 -74.89925266191598 0.0 0.0 0.0 0.062076435494888955 1.0360332325411319 -74.89925266191598 3.4513084868816533
0.75 0.06818411923656846 0.19091082177787722 -86.91548817992783 0.0 0.0 0.0 0.06818411923656846 0.19091082177787722 -86.91548817992783 3.747317155542831
0.76 0.06570342847338333 -0.6865800736483819 -87.95748988330043 0.0 0.0 0.0 0.06570342847338333 -0.6865800736483819 -87.95748988330043 3.570936299807782
0.77 0.05486953153296032 -1.48477683468714 -77.78522265901964 0.0 0.0 0.0 0.05486953153296032 -1.48477683468714 -77.78522265901964 2.940196679556606
0.78 0.036985507033375775 -2.1011133253743144 -57.59575567114187 0.0 0.0 0.0 0.036985507033375775 -2.1011133253743144 -57.59575567114187 1.931264137672775
0.79 0.01426547287344786 -2.455364491103991 -29.882456798424126 0.0 0.0 0.0 0.01426547287344786 -2.455364491103991 -29.882456798424126 0.6692291110603625
0.8 -0.010440573919031308 -2.500135386476266 1.8742522780717197 0.0 0.0 0.0 -0.010440573919031308 -2.500135386476266 1.8742522780717197 -0.6874628957583948
0.81 -0.03400585755044485 -2.2272186398952107 33.64603025311398 0.0 0.0 0.0 -0.03400585755044485 -2.2272186398952107 33.64603025311398 -1.9669932269260708
0.82 -0.05342440631666276 -1.6689668826746522 61.369962089291285 0.0 0.0 0.0 -0.05342440631666276 -1.6689668826746522 61.369962089291285 -3.006032674945653
0.83 -0.06619633326920034 -0.8944637077473037 81.47040634359576 0.0 0.0 0.0 -0.06619633326920034 -0.8944637077473037 81.47040634359576 -3.67069028370663
0.84 -0.07065121816119989 -0.000946509486508873 91.32204819670041 0.0 0.0 0.0 -0.07065121816119989 -0.000946509486508873 91.32204819670041 -3.873849831214969
0.85 -0.06616759145401492 0.8984494786987225 89.59398647397882 0.0 0.0 0.0 -0.06616759145401492 0.8984494786987225 89.59398647397882 -3.5866403634034967
0.86 -0.053259590649662555 1.6890746345469037 76.42964786252794 0.0 0.0 0.0 -0.053259590649662555 1.6890746345469037 76.42964786252794 -2.8425259221318404
0.87 -0.03351874911472048 2.2694398083384106 53.438234758306365 0.0 0.0 0.0 -0.03351874911472048 2.2694398083384106 53.438234758306365 -1.733438782776557
0.88 -0.009417431159359868 2.5642970688798057 23.497598878097794 0.0 0.0 0.0 -0.009417431159359868 2.5642970688798057 23.497598878097794 -0.39840008529923043
0.89 0.01600174069494355 2.5344344724017023 -9.607224279287422 0.0 0.0 0.0 0.01600174069494355 2.5344344724017023 -9.607224279287422 0.9939594280342332
0.9 0.03951131542649868 2.1819061295382904 -41.6642367881046 0.0 0.0 0.0 0.03951131542649868 2.1819061295382904 -41.6642367881046 2.266773106793684
0.91 0.0581102992939509 1.5499992715222515 -68.57229805497873 0.0 0.0 0.0 0.0581102992939509 1.5499992715222515 -68.57229805497873 3.2574876767773517
0.92 0.06940869932526754 0.7179136341853553 -86.86763015336733 0.0 0.0 0.0 0.06940869932526754 0.7179136341853553 -86.86763015336733 3.8387030111769453
0.93 0.0719358783259498 -0.20919122753821695 -94.1712001771047 0.0 0.0 0.0 0.0719358783259498 -0.20919122753821695 -94.1712001771047 3.9346214121450696
0.94 0.06533280508822216 -1.1135258950588949 -89.49903339580857 0.0 0.0 0.0 0.06533280508822216 -1.1135258950588949 -89.49903339580857 3.5309755118145114
0.95 0.0504029942839981 -1.8796831277331323 -73.39489573532754 0.0 0.0 0.0 0.0504029942839981 -1.8796831277331323 -73.39489573532754 2.6771307527158914
0.96 0.02901495164794119 -2.4094127377650723 -47.86747732016061 0.0 0.0 0.0 0.02901495164794119 -2.4094127377650723 -47.86747732016061 1.4800568129194223
0.97 0.0038679658338349066 -2.634262104187513 -16.13930147276491 0.0 0.0 0.0 0.0038679658338349066 -2.634262104187513 -16.13930147276491 0.09090450987654232
0.98 -0.021849326025560552 -2.524451472786327 17.76115429333944 0.0 0.0 0.0 -0.021849326025560552 -2.524451472786327 17.76115429333944 -1.314123313729656
0.99 -0.04486429539511142 -2.0928304351981803 49.51234112518351 0.0 0.0 0.0 -0.04486429539511142 -2.0928304351981803 49.51234112518351 -2.5561795165330756
1.0 -0.06223793038661361 -1.3933894278809422 75.05204063335889 0.0 0.0 0.0 -0.06223793038661361 -1.3933894278809422 75.05204063335889 -3.476601636780548
1.01 -0.0717412603245562 -0.5144974600422404 91.098485821498 0.0 0.0 0.0 -0.0717412603245562 -0.5144974600422404 91.098485821498 -3.9572401867573594
1.02 -0.07214225463411389 0.4322849839317534 95.57318404137473 0.0 0.0 0.0 -0.07214225463411389 0.4322849839317534 95.57318404137473 -3.9356747123276037
1.03 -0.06336616940826938 1.3263981137103709 87.87084521198351 0.0 0.0 0.0 -0.06336616940826938 1.3263981137103709 87.87084521198351 -3.4133527554247327
1.04 -0.04650841925288154 2.0536702122557537 68.941301015177 0.0 0.0 0.0 -0.04650841925288154 2.0536702122557537 68.941301015177 -2.45558779787173
1.05 -0.02369789003976067 2.520931655979968 41.17235521173255 0.0 0.0 0.0 -0.02369789003976067 2.520931655979968 41.17235521173255 -1.183392454704999
1.06 0.002172232218825397 2.667980734857011 8.088046056697234 0.0 0.0 0.0 0.002172232218825397 2.667980734857011 8.088046056697234 0.24183060636161902
1.07 0.02781201994722361 2.4753611863339464 -26.099455079557334 0.0 0.0 0.0 0.02781201994722361 2.4753611863339464 -26.099455079557334 1.638799668277632
1.08 0.04995396188119249 1.9669446851681551 -57.02719887583459 0.0 0.0 0.0 0.04995396188119249 1.9669446851681551 -57.02719887583459 2.8294551854635195
1.09 0.0657702096270725 1.2069753402896124 -80.7393683908592 0.0 0.0 0.0 0.0657702096270725 1.2069753402896124 -80.7393683908592 3.6617014595057076
1.1 0.07323452545270512 0.29194252592505787 -94.19425969785452 0.0 0.0 0.0 0.07323452545270512 0.29194252592505787 -94.19425969785452 4.028878386764374
1.11 0.07138251136106478 -0.6616879036685279 -95.6552387747346 0.0 0.0 0.0 0.07138251136106478 -0.6616879036685279 -95.6552387747346 3.8834654543584297
1.12 0.0604366309877109 -1.5323211241603711 -84.91534286779675 0.0 0.0 0.0 0.0604366309877109 -1.5323211241603711 -84.91534286779675 3.243253705344811
1.13 0.041779783558041315 -2.208763366031431 -63.326444516933286 0.0 0.0 0.0 0.041779783558041315 -2.208763366031431 -63.326444516933286 2.1891824176499597
1.14 0.01778054836224321 -2.6044475621379712 -33.628913384084164 0.0 0.0 0.0 0.01778054836224321 -2.6044475621379712 -33.628913384084164 0.8551028788434486
1.15 -0.008507790191248213 -2.668531680671358 0.39671352934766296 0.0 0.0 0.0 -0.008507790191248213 -2.668531680671358 0.39671352934766296 -0.589234593497022
1.16 -0.03373613845046379 -2.392444711809954 34.41169272533862 0.0 0.0 0.0 -0.03373613845046379 -2.392444711809954 34.41169272533862 -1.9598049279821874
1.17 -0.054686805705632606 -1.8110363806912382 64.0731182085048 0.0 0.0 0.0 -0.054686805705632606 -1.8110363806912382 64.0731182085048 -3.081785230351633
1.18 -0.06868445963861187 -0.9981766374686069 85.58918835070271 0.0 0.0 0.0 -0.06868445963861187 -0.9981766374686069 85.58918835070271 -3.811885047308645
1.19 -0.07393826542892826 -0.057361456099422115 96.20460058347243 0.0 0.0 0.0 -0.07393826542892826 -0.057361456099422115 96.20460058347243 -4.0566737204487096
1.2 -0.06977139376699164 0.8914786219260167 94.55385960731175 0.0 0.0 0.0 -0.06977139376699164 0.8914786219260167 94.55385960731175 -3.7845575036355545
1.21 -0.05670844560946056 1.727283529555173 80.83714855181657 0.0 0.0 0.0 -0.05670844560946056 1.727283529555173 80.83714855181657 -3.0298690304071845
1.22 -0.03640948712296161 2.343326638904133 56.796101530665844 0.0 0.0 0.0 -0.03640948712296161 2.343326638904133 56.796101530665844 -1.888539153562395
1.23 -0.011458996031914425 2.660858234181926 25.492424027057677 0.0 0.0 0.0 -0.011458996031914425 2.660858234181926 25.492424027057677 -0.5058972736574994
1.24 0.014963419196126251 2.639183503540037 -9.08244733700061 0.0 0.0 0.0 0.014963419196126251 2.639183503540037 -9.08244733700061 0.9418467156864441
1.25 0.039488530123059355 2.2808841441833354 -42.51680808533752 0.0 0.0 0.0 0.039488530123059355 2.2808841441833354 -42.51680808533752 2.270076777279778
1.26 0.05898745991200972 1.6315132233553138 -70.5421630821683 0.0 0.0 0.0 0.05898745991200972 1.6315132233553138 -70.5421630821683 3.309332035249837
1.27 0.07097119158759843 0.7737995397324995 -89.57866968230971 0.0 0.0 0.0 0.07097119158759843 0.7737995397324995 -89.57866968230971 3.9269452135757166
1.28 0.07390855720892145 -0.1829000644300468 -97.19278309974085 0.0 0.0 0.0 0.07390855720892145 -0.1829000644300468 -97.19278309974085 4.043992788801381
