time displacement velocity acceleration root point displacement root point velocity root point acceleration relative displacement relative velocity relative accleration reaction
0.0 0.0 0.0 0.0 0.0 0.0 0.0 0.0 0.0 0.0 0.0
0.01 0.0 0.0 -0.0 0.0 0.0 0.0 0.0 0.0 -0.0 0.0
0.02 0.0 0.0 -0.0 0.0 0.0 0.0 0.0 0.0 -0.0 0.0
0.03 2.313150121724794e-06 0.000437992922456764 0.0547491153070955 0.0 0.0 0.0 2.313150121724794e-06 0.000437992922456764 0.0547491153070955 0.00014697769560718162
0.04 3.278185326282846e-05 0.005407035441431835 0.60744303604511 0.0 0.0 0.0 3.278185326282846e-05 0.005407035441431835 0.60744303604511 0.002046152644706749
0.05 0.00016063310055720683 0.019700872396496837 1.634868860371848 0.0 0.0 0.0 0.00016063310055720683 0.019700872396496837 1.634868860371848 0.009713753033790504
0.06 0.0004808253056056358 0.04389619542669913 2.615698163682325 0.0 0.0 0.0 0.0004808253056056358 0.04389619542669913 2.615698163682325 0.02838287649598517
0.07 0.0010695745985701995 0.07365127041518257 3.0654598326398483 0.0 0.0 0.0 0.0010695745985701995 0.07365127041518257 3.0654598326398483 0.062032733678702434
0.08 0.0019538176846958205 0.10325638052227734 2.9342738052268853 0.0 0.0 0.0 0.0019538176846958205 0.10325638052227734 2.9342738052268853 0.11187761715589659
0.09 0.003109503676762596 0.12813208834167653 2.375895026118177 0.0 0.0 0.0 0.003109503676762596 0.12813208834167653 2.375895026118177 0.17638816266061025
0.1 0.004473931767553025 0.14513363383462263 1.5312194300887192 0.0 0.0 0.0 0.004473931767553025 0.14513363383462263 1.5312194300887192 0.25198182597132496
0.11 0.005958925607832796 0.15232209425226415 0.5157526946830103 0.0 0.0 0.0 0.005958925607832796 0.15232209425226415 0.5157526946830103 0.3337347074130763
0.12 0.007461960568441741 0.14877455769180983 -0.5723802437275408 0.0 0.0 0.0 0.007461960568441741 0.14877455769180983 -0.5723802437275408 0.41598292762148387
0.13 0.008878449874399872 0.13497742814947628 -1.58154613185981 0.0 0.0 0.0 0.008878449874399872 0.13497742814947628 -1.58154613185981 0.4930143683082209
0.14 0.010117147475402303 0.11310291378484945 -2.3389277626134026 0.0 0.0 0.0 0.010117147475402303 0.11310291378484945 -2.3389277626134026 0.5599259301104114
0.15 0.011114597969978301 0.08656433340996762 -2.7325906062068785 0.0 0.0 0.0 0.011114597969978301 0.08656433340996762 -2.7325906062068785 0.6133953660307687
0.16 0.01184333656731542 0.059186317250438186 -2.7391043683894605 0.0 0.0 0.0 0.01184333656731542 0.059186317250438186 -2.7391043683894605 0.6520927145794245
0.17 0.012312248102699435 0.03444683925631531 -2.4076586571679948 0.0 0.0 0.0 0.012312248102699435 0.03444683925631531 -2.4076586571679948 0.6766651180768005
0.18 0.012560429718320124 0.014932838420197542 -1.8373354402227224 0.0 0.0 0.0 0.012560429718320124 0.014932838420197542 -1.8373354402227224 0.6893752720228215
0.19 0.012646625631928865 0.002000298487632444 -1.1572336315149567 0.0 0.0 0.0 0.012646625631928865 0.002000298487632444 -1.1572336315149567 0.6935064971290907
0.2 0.012635926615065837 -0.004429376556720186 -0.5144009726653397 0.0 0.0 0.0 0.012635926615065837 -0.004429376556720186 -0.5144009726653397 0.6926241049824508
0.21 0.012584812239288945 -0.005994794392518332 -0.06707698630843338 0.0 0.0 0.0 0.012584812239288945 -0.005994794392518332 -0.06707698630843338 0.689749494538157
0.22 0.012525898501392484 -0.0058346898709128675 0.03678231177779149 0.0 0.0 0.0 0.012525898501392484 -0.0058346898709128675 0.03678231177779149 0.6865266190972878
0.23 0.012455095721313527 -0.008173611739400753 -0.3015608115054336 0.0 0.0 0.0 0.012455095721313527 -0.008173611739400753 -0.3015608115054336 0.6825369122596082
0.24 0.012324854382230015 -0.017518626929339004 -1.092736695865923 0.0 0.0 0.0 0.012324854382230015 -0.017518626929339004 -1.092736695865923 0.6749659089389222
0.25 0.012046472635314187 -0.0376405298083088 -2.242053685904744 0.0 0.0 0.0 0.012046472635314187 -0.0376405298083088 -2.242053685904744 0.6587766302230946
0.26 0.011502155327948385 -0.07062851281883123 -3.5629844548391176 0.0 0.0 0.0 0.011502155327948385 -0.07062851281883123 -3.5629844548391176 0.6274142650417437
0.27 0.010564864855488049 -0.11626661706522323 -4.814016917089222 0.0 0.0 0.0 0.010564864855488049 -0.11626661706522323 -4.814016917089222 0.5739232756414094
0.28 0.009122140439491023 -0.1718590748970067 -5.745552999700628 0.0 0.0 0.0 0.009122140439491023 -0.1718590748970067 -5.745552999700628 0.4922614428520305
0.29 0.007099394596042539 -0.23251033402885438 -6.145019141555804 0.0 0.0 0.0 0.007099394596042539 -0.23251033402885438 -6.145019141555804 0.37856433033568515
0.3 0.004478560473002812 -0.29177919066067626 -5.872352293588786 0.0 0.0 0.0 0.004478560473002812 -0.29177919066067626 -5.872352293588786 0.23213762796435305
0.31 0.0013089604343145711 -0.34258612517564835 -4.882778740974316 0.0 0.0 0.0 0.0013089604343145711 -0.34258612517564835 -4.882778740974316 0.056011338855388115
0.32 -0.002291416584300658 -0.3782308271056338 -3.2348930560046054 0.0 0.0 0.0 -0.002291416584300658 -0.3782308271056338 -3.2348930560046054 -0.14303698936406423
0.33 -0.006144560718433888 -0.39336625901984074 -1.0832057252747112 0.0 0.0 0.0 -0.006144560718433888 -0.39336625901984074 -1.0832057252747112 -0.35500111210664276
0.34 -0.010029870114440507 -0.3847874797366308 1.3431488417199169 0.0 0.0 0.0 -0.010029870114440507 -0.3847874797366308 1.3431488417199169 -0.5676380024426579
0.35 -0.013707965742397582 -0.35192465833515035 3.7720654647550824 0.0 0.0 0.0 -0.013707965742397582 -0.35192465833515035 3.7720654647550824 -0.7677962959390763
0.36 -0.016947623783914668 -0.296976023834977 5.925562946332894 0.0 0.0 0.0 -0.016947623783914668 -0.296976023834977 5.925562946332894 -0.9428991091684501
0.37 -0.019552194581734607 -0.22467210216560085 7.556599472088798 0.0 0.0 0.0 -0.019552194581734607 -0.22467210216560085 7.556599472088798 -1.082381745616126
0.38 -0.021382046897640953 -0.14171415816277766 8.480593132330698 0.0 0.0 0.0 -0.021382046897640953 -0.14171415816277766 8.480593132330698 -1.1788964826731412
0.39 -0.02237020781516715 -0.05597075796656238 8.597776741444235 0.0 0.0 0.0 -0.02237020781516715 -0.05597075796656238 8.597776741444235 -1.2291331493720765
0.4 -0.022529347444358524 0.02445512559501123 7.903791259835642 0.0 0.0 0.0 -0.022529347444358524 0.02445512559501123 7.903791259835642 -1.2341591845968072
0.41 -0.02194943974291842 0.09216369050072101 6.487622798254813 0.0 0.0 0.0 -0.02194943974291842 0.09216369050072101 6.487622798254813 -1.1992482513411837
0.42 -0.020786656025382873 0.14127957246965375 4.517579546552888 0.0 0.0 0.0 -0.020786656025382873 0.14127957246965375 4.517579546552888 -1.1332334895381388
0.43 -0.01924515368303427 0.16805586787826832 2.2176420394385965 0.0 0.0 0.0 -0.01924515368303427 0.16805586787826832 2.2176420394385965 -1.0474812065183685
0.44 -0.01755425985573683 0.17119381187839583 -0.16216750984370965 0.0 0.0 0.0 -0.01755425985573683 0.17119381187839583 -0.16216750984370965 -0.9546251525436442
0.45 -0.01594400656115291 0.15185351927314722 -2.3769946981951486 0.0 0.0 0.0 -0.01594400656115291 0.15185351927314722 -2.3769946981951486 -0.8672246178614492
0.46 -0.014621999976745067 0.11337514655602446 -4.215547915091557 0.0 0.0 0.0 -0.014621999976745067 0.11337514655602446 -4.215547915091557 -0.796509001983355
0.47 -0.013754227697227782 0.060767257409675236 -5.522099164520763 0.0 0.0 0.0 -0.013754227697227782 0.060767257409675236 -5.522099164520763 -0.7513490107981542
0.48 -0.013451717242892408 4.4318018131636605e-05 -6.209842632812759 0.0 0.0 0.0 -0.013451717242892408 4.4318018131636605e-05 -6.209842632812759 -0.7375556177989566
0.49 -0.013764080895961437 -0.06249239500532515 -6.264628469728909 0.0 0.0 0.0 -0.013764080895961437 -0.06249239500532515 -6.264628469728909 -0.7575592056958105
0.5 -0.01468004614304509 -0.12093699895354085 -5.739418376094734 0.0 0.0 0.0 -0.01468004614304509 -0.12093699895354085 -5.739418376094734 -0.8104700319750251
0.51 -0.016134199725758316 -0.1703430500514035 -4.740901793209145 0.0 0.0 0.0 -0.016134199725758316 -0.1703430500514035 -4.740901793209145 -0.892473951265693
0.52 -0.01801847907857528 -0.2071113603181639 -3.410813335042768 0.0 0.0 0.0 -0.01801847907857528 -0.2071113603181639 -3.410813335042768 -0.997480330452918
0.53 -0.020196522174228432 -0.22917477427817753 -1.9052234112410114 0.0 0.0 0.0 -0.020196522174228432 -0.22917477427817753 -1.9052234112410114 -1.117917350429741
0.54 -0.022518854493152368 -0.23598055264244308 -0.3744164427229394 0.0 0.0 0.0 -0.022518854493152368 -0.23598055264244308 -0.3744164427229394 -1.2455638972810967
0.55 -0.024837043387879974 -0.2282998737403533 1.053688973441958 0.0 0.0 0.0 -0.024837043387879974 -0.2282998737403533 1.053688973441958 -1.3723168831495152
0.56 -0.027015358621887264 -0.20791700914692418 2.2844358308181487 0.0 0.0 0.0 -0.027015358621887264 -0.20791700914692418 2.2844358308181487 -1.490816295658837
0.57 -0.028939061199505546 -0.17726280992796412 3.2606659446654693 0.0 0.0 0.0 -0.028939061199505546 -0.17726280992796412 3.2606659446654693 -1.5948828148255754
0.58 -0.03051908393278187 -0.13905670550710048 3.9605965664415863 0.0 0.0 0.0 -0.03051908393278187 -0.13905670550710048 3.9605965664415863 -1.6797579804877567
0.59 -0.03169346791890619 -0.09601343984276028 4.390259066432128 0.0 0.0 0.0 -0.03169346791890619 -0.09601343984276028 4.390259066432128 -1.7421694642263934
0.6 -0.03242636708902103 -0.05064864326295344 4.573034805867825 0.0 0.0 0.0 -0.03242636708902103 -0.05064864326295344 4.573034805867825 -1.7802675450811187
0.61 -0.03270565899451507 -0.005194217222338655 4.538544553609891 0.0 0.0 0.0 -0.03270565899451507 -0.005194217222338655 4.538544553609891 -1.793490216661489
0.62 -0.03254021187217224 0.038385229144193074 4.312794657413994 0.0 0.0 0.0 -0.03254021187217224 0.038385229144193074 4.312794657413994 -1.7824140964105708
0.63 -0.031957663286684465 0.07830495061540044 3.9117665195474216 0.0 0.0 0.0 -0.031957663286684465 0.07830495061540044 3.9117665195474216 -1.7486366502806008
0.64 -0.031003171235579725 0.11285063360464659 3.3402687437689123 0.0 0.0 0.0 -0.031003171235579725 0.11285063360464659 3.3402687437689123 -1.6947127497010226
0.65 -0.029739108537932556 0.14029695170027767 2.595722576011657 0.0 0.0 0.0 -0.029739108537932556 0.14029695170027767 2.595722576011657 -1.6241416613566293
0.66 -0.02824521514432395 0.15889564450044108 1.6759059560175125 0.0 0.0 0.0 -0.02824521514432395 0.15889564450044108 1.6759059560175125 -1.5413759467162618
0.67 -0.026618397351285683 0.16695715144200893 0.5887118786916039 0.0 0.0 0.0 -0.026618397351285683 0.16695715144200893 0.5887118786916039 -1.4518066978046615
0.68 -0.02497124703612579 0.16302523246423348 -0.6386678418948297 0.0 0.0 0.0 -0.02497124703612579 0.16302523246423348 -0.6386678418948297 -1.3616743142974221
0.69 -0.023428523946328134 0.14611153056600554 -1.9545457768047865 0.0 0.0 0.0 -0.023428523946328134 0.14611153056600554 -1.9545457768047865 -1.2778648375711354
0.7 -0.022121302480867817 0.11593098615000504 -3.2839316077988654 0.0 0.0 0.0 -0.022121302480867817 0.11593098615000504 -3.2839316077988654 -1.2075781896630822
0.71 -0.02117904447616066 0.07308357039808466 -4.53494406704033 0.0 0.0 0.0 -0.02117904447616066 0.07308357039808466 -4.53494406704033 -1.1578851643895771
0.72 -0.02072030921364352 0.01914653434558633 -5.608393489802209 0.0 0.0 0.0 -0.02072030921364352 0.01914653434558633 -5.608393489802209 -1.1352138136041772
0.73 -0.020843005444278917 -0.04332639929348255 -6.407018332433058 0.0 0.0 0.0 -0.020843005444278917 -0.04332639929348255 -6.407018332433058 -1.1448150028773132
0.74 -0.021615068670371215 -0.11088975497962585 -6.843664877659648 0.0 0.0 0.0 -0.021615068670371215 -0.11088975497962585 -6.843664877659648 -1.1902551439255165
0.75 -0.023066281747167256 -0.1793514514469781 -6.84679583900412 0.0 0.0 0.0 -0.023066281747167256 -0.1793514514469781 -6.84679583900412 -1.2729743949637418
0.76 -0.02518171711782626 -0.24395310247399113 -6.3635074186256 0.0 0.0 0.0 -0.02518171711782626 -0.24395310247399113 -6.3635074186256 -1.3919353922842173
0.77 -0.027897019751124522 -0.29955906189140974 -5.359868072520925 0.0 0.0 0.0 -0.027897019751124522 -0.29955906189140974 -5.359868072520925 -1.5433733098011624
0.78 -0.031095564661083902 -0.3408426443764756 -3.8204807925030013 0.0 0.0 0.0 -0.031095564661083902 -0.3408426443764756 -3.8204807925030013 -1.7206485720085483
0.79 -0.03460757363649707 -0.36249048037691656 -1.7508593019293712 0.0 0.0 0.0 -0.03460757363649707 -0.36249048037691656 -1.7508593019293712 -1.9142078245864724
0.8 -0.038211711634513264 -0.359490714418802 0.8126855702466619 0.0 0.0 0.0 -0.038211711634513264 -0.359490714418802 0.8126855702466619 -2.111684721783627
0.81 -0.04164025456256282 -0.3275570066214474 3.788542082107658 0.0 0.0 0.0 -0.04164025456256282 -0.3275570066214474 3.788542082107658 -2.298202779969906
0.82 -0.04458924903786625 -0.26370264155314604 7.0346601130107524 0.0 0.0 0.0 -0.04458924903786625 -0.26370264155314604 7.0346601130107524 -2.456958846257651
0.83 -0.04673504633903993 -0.16694257605243792 10.336343159335827 0.0 0.0 0.0 -0.04673504633903993 -0.16694257605243792 10.336343159335827 -2.5701619492679715
0.84 -0.047758342165607946 -0.03909388510010803 13.397000579207281 0.0 0.0 0.0 -0.047758342165607946 -0.03909388510010803 13.397000579207281 -2.6203882196548887
0.85 -0.04737609512479355 0.11444267460536005 15.842819818381688 0.0 0.0 0.0 -0.04737609512479355 0.11444267460536005 15.842819818381688 -2.5923669326605836
0.86 -0.04538039933682077 0.2840667167655273 17.24230031542548 0.0 0.0 0.0 -0.04538039933682077 0.2840667167655273 17.24230031542548 -2.475140226666668
0.87 -0.04168178187394967 0.45570113377910304 17.143727047840596 0.0 0.0 0.0 -0.04168178187394967 0.45570113377910304 17.143727047840596 -2.264449847994822
0.88 -0.03635244289949284 0.6110704817531327 15.135236734793569 0.0 0.0 0.0 -0.03635244289949284 0.6110704817531327 15.135236734793569 -1.9650952020185481
0.89 -0.02966292809619426 0.7287278240648691 10.923358605268668 0.0 0.0 0.0 -0.02966292809619426 0.7287278240648691 10.923358605268668 -1.5928968676073472
0.9 -0.02210418276592107 0.7859470497598875 4.42156356056013 0.0 0.0 0.0 -0.02210418276592107 0.7859470497598875 4.42156356056013 -1.1758187767664974
0.91 -0.014386504820876701 0.7614534346043028 -4.167092784588115 0.0 0.0 0.0 -0.014386504820876701 0.7614534346043028 -4.167092784588115 -0.7537852013368715
0.92 -0.007407781281219276 0.6388440609063604 -14.284398516095774 0.0 0.0 0.0 -0.007407781281219276 0.6388440609063604 -14.284398516095774 -0.3767818208475603
0.93 -0.0021856511522449105 0.410397130555448 -24.98476666484011 0.0 0.0 0.0 -0.0021856511522449105 0.410397130555448 -24.98476666484011 -0.10096098467203783
0.94 0.00024766002075222017 0.08075362024970473 -34.95924712200788 0.0 0.0 0.0 0.00024766002075222017 0.08075362024970473 -34.95924712200788 0.01729386546933065
0.95 -0.001016907540125283 -0.33021473873826085 -42.631233092993725 0.0 0.0 0.0 -0.001016907540125283 -0.33021473873826085 -42.631233092993725 -0.07094691840702927
0.96 -0.006606860267630914 -0.7861116728347448 -46.32930848881207 0.0 0.0 0.0 -0.006606860267630914 -0.7861116728347448 -46.32930848881207 -0.39841528542460125
0.97 -0.016709236207628042 -1.2351645280819783 -44.54927978370117 0.0 0.0 0.0 -0.016709236207628042 -1.2351645280819783 -44.54927978370117 -0.9729849895560165
0.98 -0.030938484531822276 -1.6144114663572158 -36.2685473384794 0.0 0.0 0.0 -0.030938484531822276 -1.6144114663572158 -36.2685473384794 -1.7706200343322474
0.99 -0.04826149638562491 -1.8569492139775634 -21.25008161792362 0.0 0.0 0.0 -0.04826149638562491 -1.8569492139775634 -21.25008161792362 -2.7315975106667816
1.0 -0.06700728213523732 -1.901646864039047 -0.2746858532045378 0.0 0.0 0.0 -0.06700728213523732 -1.901646864039047 -0.2746858532045378 -3.7614850352208586
1.01 -0.08497999685051089 -1.704159267134005 24.754621076431388 0.0 0.0 0.0 -0.08497999685051089 -1.704159267134005 24.754621076431388 -4.7378445536016764
1.02 -0.09967931066014776 -1.2474679093151884 50.897764458244225 0.0 0.0 0.0 -0.09967931066014776 -1.2474679093151884 50.897764458244225 -5.5228001273244
1.03 -0.1086139202210067 -0.5500535670985236 74.45235166252203 0.0 0.0 0.0 -0.1086139202210067 -0.5500535670985236 74.45235166252203 -5.980603709804329
1.04 -0.10967585719096366 0.3300403387152674 91.39865031109336 0.0 0.0 0.0 -0.10967585719096366 0.3300403387152674 91.39865031109336 -5.998345394199635
1.05 -0.10152568033870207 1.2970144772447536 98.02210473841244 0.0 0.0 0.0 -0.10152568033870207 1.2970144772447536 98.02210473841244 -5.506990387017775
1.06 -0.08392463101471835 2.2260732646744215 91.62682224410538 0.0 0.0 0.0 -0.08392463101471835 2.2260732646744215 91.62682224410538 -4.499188148361984
1.07 -0.057947331260925515 2.9785972967899537 71.15879845341517 0.0 0.0 0.0 -0.057947331260925515 2.9785972967899537 71.15879845341517 -3.040236697384208
1.08 -0.026020487021548057 3.421864589973981 37.61871203464962 0.0 0.0 0.0 -0.026020487021548057 3.421864589973981 37.61871203464962 -1.269297532252677
1.09 0.008244565493560833 3.450685275032733 -5.802092376318383 0.0 0.0 0.0 0.008244565493560833 3.450685275032733 -5.802092376318383 0.6107810486634462
1.1 0.040427361156757276 3.007537256677366 -53.94297920034123 0.0 0.0 0.0 0.040427361156757276 3.007537256677366 -53.94297920034123 2.3549789260321603
1.11 0.06584872985620341 2.097578724828189 -100.25907168106188 0.0 0.0 0.0 0.06584872985620341 2.097578724828189 -100.25907168106188 3.7069744793577297
1.12 0.08023113481714361 0.7957352357972503 -137.6656682086019 0.0 0.0 0.0 0.08023113481714361 0.7957352357972503 -137.6656682086019 4.435676942870658
1.13 0.08037938951963483 -0.7562235518605844 -159.57843140507887 0.0 0.0 0.0 0.08037938951963483 -0.7562235518605844 -159.57843140507887 4.372415643975991
1.14 0.06477684860079953 -2.363630839634536 -161.03130312047423 0.0 0.0 0.0 0.06477684860079953 -2.363630839634536 -161.03130312047423 3.4429875901586495
1.15 0.03399270983661501 -3.802822490828002 -139.64113061906474 0.0 0.0 0.0 0.03399270983661501 -3.802822490828002 -139.64113061906474 1.6888904457635128
1.16 -0.009183419621355632 -4.851938747312116 -96.2292494057481 0.0 0.0 0.0 -0.009183419621355632 -4.851938747312116 -96.2292494057481 -0.7267160802152866
1.17 -0.0599271453688545 -5.324361571138174 -34.99554062682023 0.0 0.0 0.0 -0.0599271453688545 -5.324361571138174 -34.99554062682023 -3.5307260128466478
1.18 -0.11188674053997097 -5.099870099942468 36.810319056168325 0.0 0.0 0.0 -0.11188674053997097 -5.099870099942468 36.810319056168325 -6.369344008403962
1.19 -0.15796383672969688 -4.148365469022856 109.73549910090944 0.0 0.0 0.0 -0.15796383672969688 -4.148365469022856 109.73549910090944 -8.851981979464332
1.2 -0.19127275645232725 -2.5420476354002277 173.3558544276012 0.0 0.0 0.0 -0.19127275645232725 -2.5420476354002277 173.3558544276012 -10.604419427509512
1.21 -0.2061504010716792 -0.4534521181973159 217.73547604346365 0.0 0.0 0.0 -0.2061504010716792 -0.4534521181973159 217.73547604346365 -11.324085288197248
1.22 -0.19907071890402867 1.8616407813995428 234.9527434387414 0.0 0.0 0.0 -0.19907071890402867 1.8616407813995428 234.9527434387414 -10.829412041563513
1.23 -0.16931907809530997 4.0952100283855195 220.45797001356172 0.0 0.0 0.0 -0.16931907809530997 4.0952100283855195 220.45797001356172 -9.095385390660113
1.24 -0.11930650775923168 5.928205643606566 174.0099593992405 0.0 0.0 0.0 -0.11930650775923168 5.928205643606566 174.0099593992405 -6.268878360832772
1.25 -0.05445095263719124 7.076210698619135 99.9981420267609 0.0 0.0 0.0 -0.05445095263719124 7.076210698619135 99.9981420267609 -2.6600400409607152
1.26 0.01738552396907634 7.332895081014685 7.086012292753643 0.0 0.0 0.0 0.01738552396907634 7.332895081014685 7.086012292753643 1.2905614529511311
1.27 0.08684867511185299 6.604682961195167 -92.79801805062817 0.0 0.0 0.0 0.08684867511185299 6.604682961195167 -92.79801805062817 5.065728272597877
