time displacement velocity acceleration root point displacement root point velocity root point acceleration relative displacement relative velocity relative accleration
0.0 0.0 0.0 0.0 0.0 0.0 0.0 0.0 0.0 0.0
0.01 0.0 0.0 0.0 0.0 0.0 0.0 0.0 0.0 0.0
0.02 0.0 0.0 0.0 0.0 0.0 0.0 0.0 0.0 0.0
0.03 2.23489563214e-05 0.0042317550431 0.528969380388 0.0 0.0 0.0 2.23489563214e-05 0.0042317550431 0.528969380388
0.04 0.000292368438799 0.0476286134439 5.292364955 0.0 0.0 0.0 0.000292368438799 0.0476286134439 5.292364955
0.05 0.0012031128432 0.132711320454 9.31224713749 0.0 0.0 0.0 0.0012031128432 0.132711320454 9.31224713749
0.06 0.00290202358975 0.208070039903 7.09177814677 0.0 0.0 0.0 0.00290202358975 0.208070039903 7.09177814677
0.07 0.00500248049391 0.215587603201 -0.833249124433 0.0 0.0 0.0 0.00500248049391 0.215587603201 -0.833249124433
0.08 0.00679563501659 0.146462865214 -8.4322799672 0.0 0.0 0.0 0.00679563501659 0.146462865214 -8.4322799672
0.09 0.0077063884435 0.037096519625 -11.5627232069 0.0 0.0 0.0 0.0077063884435 0.037096519625 -11.5627232069
0.1 0.00757497294302 -0.0641864826463 -9.7696944822 0.0 0.0 0.0 0.00757497294302 -0.0641864826463 -9.7696944822
0.11 0.00665514640082 -0.122021082689 -4.78690138476 0.0 0.0 0.0 0.00665514640082 -0.122021082689 -4.78690138476
0.12 0.00542605757875 -0.126251360621 0.667940604714 0.0 0.0 0.0 0.00542605757875 -0.126251360621 0.667940604714
0.13 0.00436699268549 -0.087372819385 4.69283250327 0.0 0.0 0.0 0.00436699268549 -0.087372819385 4.69283250327
0.14 0.00379141906895 -0.0284183732359 6.19609764283 0.0 0.0 0.0 0.00379141906895 -0.0284183732359 6.19609764283
0.15 0.00375927149999 0.0226041475728 4.82879069038 0.0 0.0 0.0 0.00375927149999 0.0226041475728 4.82879069038
0.16 0.00408410204376 0.0438813152622 1.45244828857 0.0 0.0 0.0 0.00408410204376 0.0438813152622 1.45244828857
0.17 0.00443777712826 0.0285339907999 -2.28152762993 0.0 0.0 0.0 0.00443777712826 0.0285339907999 -2.28152762993
0.18 0.00450036485671 -0.0148589514021 -4.85373586777 0.0 0.0 0.0 0.00450036485671 -0.0148589514021 -4.85373586777
0.19 0.00408080527886 -0.0687517222341 -5.52316238706 0.0 0.0 0.0 0.00408080527886 -0.0687517222341 -5.52316238706
0.2 0.00315974916816 -0.115913432543 -4.51442319191 0.0 0.0 0.0 0.00315974916816 -0.115913432543 -4.51442319191
0.21 0.00184671652497 -0.147458073108 -2.81447427264 0.0 0.0 0.0 0.00184671652497 -0.147458073108 -2.81447427264
0.22 0.0002833045439 -0.165777023902 -1.58625028111 0.0 0.0 0.0 0.0002833045439 -0.165777023902 -1.58625028111
0.23 -0.00144969164676 -0.180865739746 -1.4895269102 0.0 0.0 0.0 -0.00144969164676 -0.180865739746 -1.4895269102
0.24 -0.0033675690711 -0.202339694078 -2.31186256385 0.0 0.0 0.0 -0.0033675690711 -0.202339694078 -2.31186256385
0.25 -0.00554235254053 -0.232235768325 -3.1590436399 0.0 0.0 0.0 -0.00554235254053 -0.232235768325 -3.1590436399
0.26 -0.00801791299001 -0.262926907065 -3.04663143254 0.0 0.0 0.0 -0.00801791299001 -0.262926907065 -3.04663143254
0.27 -0.0107328906456 -0.280778217987 -1.4697560071 0.0 0.0 0.0 -0.0107328906456 -0.280778217987 -1.4697560071
0.28 -0.0134947946273 -0.272873932184 1.35547472711 0.0 0.0 0.0 -0.0134947946273 -0.272873932184 1.35547472711
0.29 -0.0160166899585 -0.2329863557 4.64707837869 0.0 0.0 0.0 -0.0160166899585 -0.2329863557 4.64707837869
0.3 -0.0179952874512 -0.16399966273 7.4615670266 0.0 0.0 0.0 -0.0179952874512 -0.16399966273 7.4615670266
0.31 -0.019192838979 -0.076249460275 9.10338355022 0.0 0.0 0.0 -0.019192838979 -0.076249460275 9.10338355022
0.32 -0.0194892880916 0.0168437953635 9.36081106726 0.0 0.0 0.0 -0.0194892880916 0.0168437953635 9.36081106726
0.33 -0.0188893673868 0.103529718654 8.49553764448 0.0 0.0 0.0 -0.0188893673868 0.103529718654 8.49553764448
0.34 -0.0174910163251 0.176797898487 7.03463806805 0.0 0.0 0.0 -0.0174910163251 0.176797898487 7.03463806805
0.35 -0.015436434209 0.23481220397 5.4931286683 0.0 0.0 0.0 -0.015436434209 0.23481220397 5.4931286683
0.36 -0.0128700429327 0.279066624981 4.15852045931 0.0 0.0 0.0 -0.0128700429327 0.279066624981 4.15852045931
0.37 -0.00991958841072 0.311536989184 3.01916541061 0.0 0.0 0.0 -0.00991958841072 0.311536989184 3.01916541061
0.38 -0.00670281233525 0.332345999616 1.84633495126 0.0 0.0 0.0 -0.00670281233525 0.332345999616 1.84633495126
0.39 -0.00334942641812 0.33899570149 0.369628996487 0.0 0.0 0.0 -0.00334942641812 0.33899570149 0.369628996487
0.4 -2.20537722489e-05 0.327342250607 -1.54908860944 0.0 0.0 0.0 -2.20537722489e-05 0.327342250607 -1.54908860944
0.41 0.00307790536708 0.293672157644 -3.8214894681 0.0 0.0 0.0 0.00307790536708 0.293672157644 -3.8214894681
0.42 0.00572510313871 0.236815969444 -6.15165115795 0.0 0.0 0.0 0.00572510313871 0.236815969444 -6.15165115795
0.43 0.00770142936216 0.159346622249 -8.14575560986 0.0 0.0 0.0 0.00770142936216 0.159346622249 -8.14575560986
0.44 0.00883244217352 0.0674435029524 -9.45145100962 0.0 0.0 0.0 0.00883244217352 0.0674435029524 -9.45145100962
0.45 0.00901689210128 -0.0303680582738 -9.86358240088 0.0 0.0 0.0 0.00901689210128 -0.0303680582738 -9.86358240088
0.46 0.0082413170914 -0.124973644574 -9.35980268727 0.0 0.0 0.0 0.0082413170914 -0.124973644574 -9.35980268727
0.47 0.00657816091256 -0.208238814403 -8.06819555687 0.0 0.0 0.0 0.00657816091256 -0.208238814403 -8.06819555687
0.48 0.00417183694147 -0.273872447929 -6.18715530147 0.0 0.0 0.0 0.00417183694147 -0.273872447929 -6.18715530147
0.49 0.00121954223927 -0.317606714854 -3.91999454028 0.0 0.0 0.0 0.00121954223927 -0.317606714854 -3.91999454028
0.5 -0.002047453549 -0.336911543138 -1.43310490047 0.0 0.0 0.0 -0.002047453549 -0.336911543138 -1.43310490047
0.51 -0.00537919834185 -0.33059863786 1.14738938493 0.0 0.0 0.0 -0.00537919834185 -0.33059863786 1.14738938493
0.52 -0.00851953833424 -0.298622605889 3.71015665007 0.0 0.0 0.0 -0.00851953833424 -0.298622605889 3.71015665007
0.53 -0.0112181989982 -0.242196530526 6.12572025791 0.0 0.0 0.0 -0.0112181989982 -0.242196530526 6.12572025791
0.54 -0.0132451256204 -0.164134088621 8.22637517358 0.0 0.0 0.0 -0.0132451256204 -0.164134088621 8.22637517358
0.55 -0.0144081165577 -0.0691780405189 9.81291221942 0.0 0.0 0.0 -0.0144081165577 -0.0691780405189 9.81291221942
0.56 -0.0145722688195 0.0359536913668 10.6882384309 0.0 0.0 0.0 -0.0145722688195 0.0359536913668 10.6882384309
0.57 -0.0136777185951 0.142949948184 10.7024724944 0.0 0.0 0.0 -0.0136777185951 0.142949948184 10.7024724944
0.58 -0.0117517424429 0.242656906616 9.78775168042 0.0 0.0 0.0 -0.0117517424429 0.242656906616 9.78775168042
0.59 -0.00891195442029 0.326111961404 7.98494392837 0.0 0.0 0.0 -0.00891195442029 0.326111961404 7.98494392837
0.6 -0.00535934314365 0.385557986001 5.43451709252 0.0 0.0 0.0 -0.00535934314365 0.385557986001 5.43451709252
0.61 -0.00136249733667 0.415200689205 2.34670862737 0.0 0.0 0.0 -0.00136249733667 0.415200689205 2.34670862737
0.62 0.00276416465828 0.411651381922 -1.03034056715 0.0 0.0 0.0 0.00276416465828 0.411651381922 -1.03034056715
0.63 0.0066855578739 0.374156766736 -4.42924175648 0.0 0.0 0.0 0.0066855578739 0.374156766736 -4.42924175648
0.64 0.0100725280705 0.304655282589 -7.58037507929 0.0 0.0 0.0 0.0100725280705 0.304655282589 -7.58037507929
0.65 0.0126282080407 0.207672056911 -10.2278094399 0.0 0.0 0.0 0.0126282080407 0.207672056911 -10.2278094399
0.66 0.0141127585584 0.0900984208453 -12.1397521482 0.0 0.0 0.0 0.0141127585584 0.0900984208453 -12.1397521482
0.67 0.0143650701326 -0.0391921234821 -13.1263800039 0.0 0.0 0.0 0.0143650701326 -0.0391921234821 -13.1263800039
0.68 0.0133189119195 -0.170061694514 -13.077101378 0.0 0.0 0.0 0.0133189119195 -0.170061694514 -13.077101378
0.69 0.0110098698701 -0.292230584819 -12.0018359437 0.0 0.0 0.0 0.0110098698701 -0.292230584819 -12.0018359437
0.7 0.00757076536739 -0.396477461612 -10.0304006132 0.0 0.0 0.0 0.00757076536739 -0.396477461612 -10.0304006132
0.71 0.0032166913977 -0.475532582141 -7.37428991287 0.0 0.0 0.0 0.0032166913977 -0.475532582141 -7.37428991287
0.72 -0.00177554530482 -0.524318583844 -4.25467773458 0.0 0.0 0.0 -0.00177554530482 -0.524318583844 -4.25467773458
0.73 -0.00708761494173 -0.539627474655 -0.849941917782 0.0 0.0 0.0 -0.00708761494173 -0.539627474655 -0.849941917782
0.74 -0.0123744572712 -0.519359175394 2.74602288706 0.0 0.0 0.0 -0.0123744572712 -0.519359175394 2.74602288706
0.75 -0.0172722649035 -0.46189033545 6.49709927131 0.0 0.0 0.0 -0.0172722649035 -0.46189033545 6.49709927131
0.76 -0.0214020392475 -0.365814197753 10.3852423942 0.0 0.0 0.0 -0.0214020392475 -0.365814197753 10.3852423942
0.77 -0.0243733142656 -0.230225946163 14.3522208502 0.0 0.0 0.0 -0.0243733142656 -0.230225946163 14.3522208502
0.78 -0.0257945572567 -0.0557630649104 18.219804944 0.0 0.0 0.0 -0.0257945572567 -0.0557630649104 18.219804944
0.79 -0.0252983748594 0.1534783548 21.6002262277 0.0 0.0 0.0 -0.0252983748594 0.1534783548 21.6002262277
0.8 -0.0225855574494 0.388041100038 23.9202865979 0.0 0.0 0.0 -0.0225855574494 0.388041100038 23.9202865979
0.81 -0.0174839715134 0.632008104365 24.5158038914 0.0 0.0 0.0 -0.0174839715134 0.632008104365 24.5158038914
0.82 -0.0100136825344 0.862854709588 22.7268746799 0.0 0.0 0.0 -0.0100136825344 0.862854709588 22.7268746799
0.83 -0.000449268717155 1.05216331198 17.9818566295 0.0 0.0 0.0 -0.000449268717155 1.05216331198 17.9818566295
0.84 0.0106322382023 1.16775105569 9.95300380553 0.0 0.0 0.0 0.0106322382023 1.16775105569 9.95300380553
0.85 0.0223331442786 1.17748139274 -1.27195881944 0.0 0.0 0.0 0.0223331442786 1.17748139274 -1.27195881944
0.86 0.033459330578 1.05398695256 -15.1188153176 0.0 0.0 0.0 0.033459330578 1.05398695256 -15.1188153176
0.87 0.0425970407305 0.780437879674 -30.4139302817 0.0 0.0 0.0 0.0425970407305 0.780437879674 -30.4139302817
0.88 0.0482486044056 0.356607479562 -45.3753174436 0.0 0.0 0.0 0.0482486044056 0.356607479562 -45.3753174436
0.89 0.0490229863643 -0.196161451512 -57.7522870233 0.0 0.0 0.0 0.0490229863643 -0.196161451512 -57.7522870233
0.9 0.043865069097 -0.832134196484 -65.0585213658 0.0 0.0 0.0 0.043865069097 -0.832134196484 -65.0585213658
0.91 0.0323004352031 -1.48089519444 -64.8304944029 0.0 0.0 0.0 0.0323004352031 -1.48089519444 -64.8304944029
0.92 0.0146589086965 -2.05176578902 -55.151200722 0.0 0.0 0.0 0.0146589086965 -2.05176578902 -55.151200722
0.93 -0.0077775875299 -2.4444665868 -35.2997995414 0.0 0.0 0.0 -0.0077775875299 -2.4444665868 -35.2997995414
0.94 -0.0327544880268 -2.5640434512 -6.1221581653 0.0 0.0 0.0 -0.0327544880268 -2.5640434512 -6.1221581653
0.95 -0.0571852577847 -2.3382548246 29.7541178665 0.0 0.0 0.0 -0.0571852577847 -2.3382548246 29.7541178665
0.96 -0.0774723561495 -1.73628874882 67.8072300064 0.0 0.0 0.0 -0.0774723561495 -1.73628874882 67.8072300064
0.97 -0.0900028765232 -0.785173965598 101.937540401 0.0 0.0 0.0 -0.0900028765232 -0.785173965598 101.937540401
0.98 -0.0917618398218 0.422774093995 125.509122349 0.0 0.0 0.0 -0.0917618398218 0.422774093995 125.509122349
0.99 -0.0809603564271 1.73434557071 132.569154003 0.0 0.0 0.0 -0.0809603564271 1.73434557071 132.569154003
1.0 -0.05756291242 2.9512618397 118.972245122 0.0 0.0 0.0 -0.05756291242 2.9512618397 118.972245122
1.01 -0.0235893139283 3.85930246155 83.7620164509 0.0 0.0 0.0 -0.0235893139283 3.85930246155 83.7620164509
1.02 0.0169494760171 4.27233839077 30.6889870398 0.0 0.0 0.0 0.0169494760171 4.27233839077 30.6889870398
1.03 0.0585344667756 4.07312790592 -32.5735573666 0.0 0.0 0.0 0.0585344667756 4.07312790592 -32.5735573666
1.04 0.0949512128919 3.23882805777 -96.1440916761 0.0 0.0 0.0 0.0949512128919 3.23882805777 -96.1440916761
1.05 0.120280288479 1.85097286278 -149.445876455 0.0 0.0 0.0 0.120280288479 1.85097286278 -149.445876455
1.06 0.129902661936 0.0885734879543 -182.938452739 0.0 0.0 0.0 0.129902661936 0.0885734879543 -182.938452739
1.07 0.121345285269 -1.79689414654 -189.948841128 0.0 0.0 0.0 0.121345285269 -1.79689414654 -189.948841128
1.08 0.0948260394353 -3.51704287725 -167.531381057 0.0 0.0 0.0 0.0948260394353 -3.51704287725 -167.531381057
1.09 0.0534101563129 -4.78883201033 -117.09079637 0.0 0.0 0.0 0.0534101563129 -4.78883201033 -117.09079637
1.1 0.00268876264002 -5.38762802158 -45.5768023146 0.0 0.0 0.0 0.00268876264002 -5.38762802158 -45.5768023146
1.11 -0.0500586990548 -5.19815890642 35.0778399745 0.0 0.0 0.0 -0.0500586990548 -5.19815890642 35.0778399745
1.12 -0.097016860456 -4.22829683061 112.463299482 0.0 0.0 0.0 -0.097016860456 -4.22829683061 112.463299482
1.13 -0.131019179354 -2.60047151692 175.36233934 0.0 0.0 0.0 -0.131019179354 -2.60047151692 175.36233934
1.14 -0.146602957345 -0.53388808345 214.482344349 0.0 0.0 0.0 -0.146602957345 -0.53388808345 214.482344349
1.15 -0.14084489003 1.68153056596 223.306745089 0.0 0.0 0.0 -0.14084489003 1.68153056596 223.306745089
1.16 -0.113880763257 3.72212158776 199.247191452 0.0 0.0 0.0 -0.113880763257 3.72212158776 199.247191452
1.17 -0.0690225245535 5.27429305328 144.209635327 0.0 0.0 0.0 -0.0690225245535 5.27429305328 144.209635327
1.18 -0.0124208322209 6.08174420578 64.8789852308 0.0 0.0 0.0 -0.0124208322209 6.08174420578 64.8789852308
1.19 0.0478084785186 6.00493300156 -25.8211468351 0.0 0.0 0.0 0.0478084785186 6.00493300156 -25.8211468351
1.2 0.102855494136 5.04399830353 -113.661550546 0.0 0.0 0.0 0.102855494136 5.04399830353 -113.661550546
