time displacement velocity acceleration root point displacement root point velocity root point acceleration relative displacement relative velocity relative accleration reaction
0.0 0.0 0.0 0.0 0.0 0.0 0.0 0.0 0.0 0.0 0.0
0.01 0.000402902851546 0.0762892973341 9.53616216676 0.0 0.0 0.0 0.000402902851546 0.0762892973341 9.53616216676 1.39913298233
0.02 0.00252463583408 0.33866287656 30.4126568615 0.0 0.0 0.0 0.00252463583408 0.33866287656 30.4126568615 7.37338219663
0.03 0.00878187200263 0.898405929885 62.3647174502 0.0 0.0 0.0 0.00878187200263 0.898405929885 62.3647174502 22.8518646531
0.04 0.022659397317 1.85819135632 104.381998942 0.0 0.0 0.0 0.022659397317 1.85819135632 104.381998942 54.3642742424
0.05 0.0486006280671 3.30725958049 155.038028285 0.0 0.0 0.0 0.0486006280671 3.30725958049 155.038028285 109.819791611
0.06 0.0918569626382 5.31810610751 212.596308806 0.0 0.0 0.0 0.0918569626382 5.31810610751 212.596308806 198.236065056
0.07 0.158307352674 7.94385873789 275.070001596 0.0 0.0 0.0 0.158307352674 7.94385873789 275.070001596 329.42806028
0.08 0.254254359103 11.2162002157 340.27518433 0.0 0.0 0.0 0.254254359103 11.2162002157 340.27518433 513.665230791
0.09 0.386202179257 15.1438389286 405.886043029 0.0 0.0 0.0 0.386202179257 15.1438389286 405.886043029 761.305698638
0.1 0.560622264141 19.7115549227 469.492988503 0.0 0.0 0.0 0.560622264141 19.7115549227 469.492988503 1082.41659142
0.11 0.783712393265 24.8798444237 528.662940506 0.0 0.0 0.0 0.783712393265 24.8798444237 528.662940506 1486.39003294
0.12 1.06115525014 30.585175009 581.000588033 0.0 0.0 0.0 1.06115525014 30.585175009 581.000588033 1981.56445179
0.13 1.39788259867 36.7408507671 624.209322752 0.0 0.0 0.0 1.39788259867 36.7408507671 624.209322752 2574.86083453
0.14 1.79785108833 43.238473624 656.15052642 0.0 0.0 0.0 1.79785108833 43.238473624 656.15052642 3271.44330387
0.15 2.26383551274 49.949974031 674.899919271 0.0 0.0 0.0 2.26383551274 49.949974031 674.899919271 4074.4129519
0.16 2.79724501611 56.7301717269 678.799732164 0.0 0.0 0.0 2.79724501611 56.7301717269 678.799732164 4984.54321201
0.17 3.39796729065 63.4198155652 666.505546759 0.0 0.0 0.0 3.39796729065 63.4198155652 666.505546759 6000.06422302
0.18 4.06424524461 69.8490406823 637.026752947 0.0 0.0 0.0 4.06424524461 69.8490406823 637.026752947 7116.50264239
0.19 4.79258995605 75.8411717802 589.759698993 0.0 0.0 0.0 4.79258995605 75.8411717802 589.759698993 8326.58222099
0.2 5.57773297541 81.2167932173 524.512754895 0.0 0.0 0.0 5.57773297541 81.2167932173 524.512754895 9620.18918296
0.21 6.41262021426 85.7980000914 441.522670535 0.0 0.0 0.0 6.41262021426 85.7980000914 441.522670535 10984.4050861
0.22 7.28844877625 89.4127397057 341.461784149 0.0 0.0 0.0 7.28844877625 89.4127397057 341.461784149 12403.6083976
0.23 8.19474716554 91.8991498354 225.435820186 0.0 0.0 0.0 8.19474716554 91.8991498354 225.435820186 13859.6445373
0.24 9.11949836717 93.1097991172 94.9722051728 0.0 0.0 0.0 9.11949836717 93.1097991172 94.9722051728 15332.0626427
0.25 10.0493043516 92.9157357046 -48.000977864 0.0 0.0 0.0 10.0493043516 92.9157357046 -48.000977864 16798.4158309
0.26 10.9695896312 91.2102530668 -201.185085263 0.0 0.0 0.0 10.9695896312 91.2102530668 -201.185085263 18234.6203009
0.27 11.8648406085 87.9122863994 -361.949562113 0.0 0.0 0.0 11.8648406085 87.9122863994 -361.949562113 19615.3672625
0.28 12.718876623 82.9693595039 -527.378471406 0.0 0.0 0.0 12.718876623 82.9693595039 -527.378471406 20914.5804254
0.29 13.5151478431 76.3600100471 -694.324064247 0.0 0.0 0.0 13.5151478431 76.3600100471 -694.324064247 22105.9106655
0.3 14.2370544766 68.0956306968 -859.46640273 0.0 0.0 0.0 14.2370544766 68.0956306968 -859.46640273 23163.2585131
0.31 14.868281202 58.2216745665 -1019.3779156 0.0 0.0 0.0 14.868281202 58.2216745665 -1019.3779156 24061.314323
0.32 15.3931402713 46.8181854856 -1170.59165621 0.0 0.0 0.0 15.3931402713 46.8181854856 -1170.59165621 24776.105383
0.33 15.7969164012 33.9996266164 -1309.67194459 0.0 0.0 0.0 15.7969164012 33.9996266164 -1309.67194459 25285.538832
0.34 16.0662063758 19.9139946248 -1433.28601281 0.0 0.0 0.0 16.0662063758 19.9139946248 -1433.28601281 25569.9290825
0.35 16.1892462267 4.74122070941 -1538.27523621 0.0 0.0 0.0 16.1892462267 4.74122070941 -1538.27523621 25612.4984935
0.36 16.1562189396 -11.3091259507 -1621.72452345 0.0 0.0 0.0 16.1562189396 -11.3091259507 -1621.72452345 25399.8403167
0.37 15.9595358627 -28.0008026492 -1681.02845645 0.0 0.0 0.0 15.9595358627 -28.0008026492 -1681.02845645 24922.3334358
0.38 15.5940853592 -45.0744820919 -1713.95281623 0.0 0.0 0.0 15.5940853592 -45.0744820919 -1713.95281623 24174.4991332
0.39 15.0574427429 -62.2519093445 -1718.69020251 0.0 0.0 0.0 15.0574427429 -62.2519093445 -1718.69020251 23155.2910396
0.4 14.3500361641 -79.2405581655 -1693.90855199 0.0 0.0 0.0 14.3500361641 -79.2405581655 -1693.90855199 21868.3105265
0.41 13.4752638511 -95.7387071189 -1638.79148118 0.0 0.0 0.0 13.4752638511 -95.7387071189 -1638.79148118 20321.9410866
0.42 12.4395589586 -111.440846259 -1553.06952224 0.0 0.0 0.0 12.4395589586 -111.440846259 -1553.06952224 18529.3966713
0.43 11.2523992046 -126.043317161 -1437.04148212 0.0 0.0 0.0 11.2523992046 -126.043317161 -1437.04148212 16508.6805083
0.44 9.92625948116 -139.250082789 -1291.58533307 0.0 0.0 0.0 9.92625948116 -139.250082789 -1291.58533307 14282.4525692
0.45 8.47650668154 -150.778519329 -1118.15823421 0.0 0.0 0.0 8.47650668154 -150.778519329 -1118.15823421 11877.8055678
0.46 6.92123707523 -160.36511967 -918.785484062 0.0 0.0 0.0 6.92123707523 -160.36511967 -918.785484062 9325.95111828
0.47 5.28105766815 -167.770997928 -696.038411198 0.0 0.0 0.0 5.28105766815 -167.770997928 -696.038411198 6661.81942681
0.48 3.57881408125 -172.787086101 -453.001418799 0.0 0.0 0.0 3.57881408125 -172.787086101 -453.001418799 3923.57760725
0.49 1.83926855063 -175.238917788 -193.22860628 0.0 0.0 0.0 1.83926855063 -175.238917788 -193.22860628 1152.07336115
0.5 0.0887326734951 -174.990899744 79.3094071017 0.0 0.0 0.0 0.0887326734951 -174.990899744 79.3094071017 -1609.78768342
0.51 -1.64533952328 -171.949979816 360.2876393 0.0 0.0 0.0 -1.64533952328 -171.949979816 360.2876393 -4317.72125295
0.52 -3.33479174878 -166.068629446 645.096886347 0.0 0.0 0.0 -3.33479174878 -166.068629446 645.096886347 -6926.78933664
0.53 -4.95123164335 -157.347070178 928.920686988 0.0 0.0 0.0 -4.95123164335 -157.347070178 928.920686988 -9392.15863906
0.54 -6.46651515744 -145.834686344 1206.81780741 0.0 0.0 0.0 -6.46651515744 -145.834686344 1206.81780741 -11669.8796092
0.55 -7.85324076019 -131.630580161 1473.80882102 0.0 0.0 0.0 -7.85324076019 -131.630580161 1473.80882102 -13717.6724157
0.56 -9.08524476113 -114.883240426 1724.96526173 0.0 0.0 0.0 -9.08524476113 -114.883240426 1724.96526173 -15495.7058164
0.57 -10.1380888198 -95.7893118288 1955.49975917 0.0 0.0 0.0 -10.1380888198 -95.7893118288 1955.49975917 -16967.3546972
0.58 -10.9895306691 -74.5914681264 2160.85552301 0.0 0.0 0.0 -10.9895306691 -74.5914681264 2160.85552301 -18099.9221421
0.59 -11.6199691934 -51.5754088321 2336.79353103 0.0 0.0 0.0 -11.6199691934 -51.5754088321 2336.79353103 -18865.3122403
0.6 -12.0128552796 -27.0660154233 2479.47579334 0.0 0.0 0.0 -12.0128552796 -27.0660154233 2479.47579334 -19240.6404404
0.61 -12.1550602999 -1.42271893652 2585.54311251 0.0 0.0 0.0 -12.1550602999 -1.42271893652 2585.54311251 -19208.7691113
0.62 -12.0371946786 24.9658539763 2652.18583598 0.0 0.0 0.0 -12.0371946786 24.9658539763 2652.18583598 -18758.7570649
0.63 -11.6538697365 51.6878752634 2677.20620189 0.0 0.0 0.0 -11.6538697365 51.6878752634 2677.20620189 -17886.2131031
0.64 -11.0038968856 78.3148557535 2659.07101079 0.0 0.0 0.0 -11.0038968856 78.3148557535 2659.07101079 -16593.5451704
0.65 -10.0904192419 104.408625866 2596.95351137 0.0 0.0 0.0 -10.0904192419 104.408625866 2596.95351137 -14890.098383
0.66 -8.92097183286 129.528641418 2490.7635662 0.0 0.0 0.0 -8.92097183286 129.528641418 2490.7635662 -12792.177046
0.67 -7.50746776459 153.239491429 2341.1653598 0.0 0.0 0.0 -7.50746776459 153.239491429 2341.1653598 -10322.9477315
0.68 -5.86610897403 175.118479138 2149.58212364 0.0 0.0 0.0 -5.86610897403 175.118479138 2149.58212364 -7512.22253388
0.69 -4.01722149607 194.763144001 1918.18757698 0.0 0.0 0.0 -4.01722149607 194.763144001 1918.18757698 -4396.12371329
0.7 -1.98501650273 211.798591271 1649.88401448 0.0 0.0 0.0 -1.98501650273 211.798591271 1649.88401448 -1016.63304741
0.71 0.202720300627 225.884496963 1348.26720787 0.0 0.0 0.0 0.202720300627 225.884496963 1348.26720787 2578.96870516
0.72 2.51500703381 236.721659582 1017.57852542 0.0 0.0 0.0 2.51500703381 236.721659582 1017.57852542 6338.7648032
0.73 4.91810661042 244.057975868 662.644904467 0.0 0.0 0.0 4.91810661042 244.057975868 662.644904467 10206.9586315
0.74 7.37602398551 247.693725965 288.807535985 0.0 0.0 0.0 7.37602398551 247.693725965 288.807535985 14124.7117761
0.75 9.85105225755 247.486063686 -98.1596689404 0.0 0.0 0.0 9.85105225755 247.486063686 -98.1596689404 18031.0512989
0.76 12.3043592181 243.352619817 -492.14056631 0.0 0.0 0.0 12.3043592181 243.352619817 -492.14056631 21863.8320138
0.77 14.6966050923 235.274140438 -886.774780876 0.0 0.0 0.0 14.6966050923 235.274140438 -886.774780876 25560.7383699
0.78 16.9885815132 223.296097823 -1275.56163168 0.0 0.0 0.0 16.9885815132 223.296097823 -1275.56163168 29060.309589
0.79 19.1418612296 207.529228435 -1651.9682655 0.0 0.0 0.0 19.1418612296 207.529228435 -1651.9682655 32302.9710265
0.8 21.1194476871 188.148970421 -2009.54018541 0.0 0.0 0.0 21.1194476871 188.148970421 -2009.54018541 35232.0543247
0.81 22.8864134353 165.393791685 -2342.01229561 0.0 0.0 0.0 22.8864134353 165.393791685 -2342.01229561 37794.7888291
0.82 24.4105163232 139.5624187 -2643.4185493 0.0 0.0 0.0 24.4105163232 139.5624187 -2643.4185493 39943.2469336
0.83 25.6627826389 111.009995318 -2908.19828533 0.0 0.0 0.0 25.6627826389 111.009995318 -2908.19828533 41635.2265295
0.84 26.6180467414 80.1432197761 -3131.29737145 0.0 0.0 0.0 26.6180467414 80.1432197761 -3131.29737145 42835.054529
0.85 27.2554373008 47.4145263375 -3308.26233696 0.0 0.0 0.0 27.2554373008 47.4145263375 -3308.26233696 43514.2965226
0.86 27.5588010171 13.3153954605 -3435.32577539 0.0 0.0 0.0 27.5588010171 13.3153954605 -3435.32577539 43652.3589927
0.87 27.5170556067 -21.6311074972 -3509.48142587 0.0 0.0 0.0 27.5170556067 -21.6311074972 -3509.48142587 43236.9721157
0.88 27.1244649188 -56.8784503458 -3528.5474996 0.0 0.0 0.0 27.1244649188 -56.8784503458 -3528.5474996 42264.5430284
0.89 26.3808302539 -91.8652813561 -3491.21700139 0.0 0.0 0.0 26.3808302539 -91.8652813561 -3491.21700139 40740.3714736
0.9 25.2915932869 -126.024467393 -3397.09400429 0.0 0.0 0.0 25.2915932869 -126.024467393 -3397.09400429 38678.7219491
0.91 23.867847423 -158.792375905 -3246.71506286 0.0 0.0 0.0 23.867847423 -158.792375905 -3246.71506286 36102.7488205
0.92 22.1262559152 -189.618247594 -3041.5551954 0.0 0.0 0.0 22.1262559152 -189.618247594 -3041.5551954 33044.27329
0.93 20.0888766209 -217.973502961 -2784.01812211 0.0 0.0 0.0 20.0888766209 -217.973502961 -2784.01812211 29543.4135975
0.94 17.7828948482 -243.3608249 -2477.41071177 0.0 0.0 0.0 17.7828948482 -243.3608249 -2477.41071177 25648.0723216
0.95 15.2402673127 -265.322861187 -2125.90185798 0.0 0.0 0.0 15.2402673127 -265.322861187 -2125.90185798 21413.2871123
0.96 12.4972817613 -283.450395099 -1734.46627454 0.0 0.0 0.0 12.4972817613 -283.450395099 -1734.46627454 16900.4535696
0.97 9.59403830684 -297.389839343 -1308.81396183 0.0 0.0 0.0 9.59403830684 -297.389839343 -1308.81396183 12176.4312584
0.98 6.57385991197 -306.849918057 -855.306348836 0.0 0.0 0.0 6.57385991197 -306.849918057 -855.306348836 7312.54596081
0.99 3.48264075725 -311.607413584 -380.860353664 0.0 0.0 0.0 3.48264075725 -311.607413584 -380.860353664 2383.50318956
1.0 0.368142386561 -311.511868891 107.158175055 0.0 0.0 0.0 0.368142386561 -311.511868891 107.158175055 -2533.7703206
