#ID, TEMPERATURE
26, 295.1786153286319
27, 295.1725374817592
29, 295.1475940916098
31, 295.8919769478666
35, 296.6648475252757
38, 297.4096130570248
43, 298.1585409356774
47, 298.9073755952285
51, 299.65731268355023
56, 300.43673954793076
60, 301.13026419671206
62, 301.19367427967086
64, 301.17052354999134
