# Results for "node" with Id # 1586 for search config "initial" at position: x0: 0.125; y0: 0.025; z0: 0
# time MESH_DISPLACEMENT_X MESH_DISPLACEMENT_Y MESH_VELOCITY_X MESH_VELOCITY_Y
0.005 0.0005230388391223306 -0.00012797257811532695 0.10460776782446612 -0.02559451562306539
0.01 0.0005161357340635053 -0.0001305989677939795 -0.05437481542988065 0.012009340907936927
0.015 0.0005043762183860878 -0.00013288697133437277 -0.00283754419734273 -0.0004237620942527231
0.02 0.00048799475143943005 -0.00013483288513502917 -0.003738488516255592 -0.00035497378615758843
0.025 0.00046724565226749504 -0.00013643347859249033 -0.004586583056914735 -0.00028558665717270774
0.030000000000000002 0.00044246139265569084 -0.00013768609531885148 -0.0053603679663477635 -0.00021572567216222686
0.035 0.0004140670701161808 -0.0001385889420675579 -0.0060398708006725935 -0.00014559235197580782
0.04 0.0003825284500339754 -0.00013914111361354106 -0.00662215377071064 -7.536678892430641e-05
0.045 0.00034833432314806956 -0.0001393425533736739 -0.007104376057551216 -5.21477344153122e-06
0.049999999999999996 0.00031197034847910143 -0.00013919387023899124 -0.00748977971209986 6.474891641808887e-05
0.05499999999999999 0.0002738944352818906 -0.0001386961169269063 -0.0077863764922664405 0.00013445768015721803
0.05999999999999999 0.0002345188570533896 -0.0001378506758486324 -0.00800508214882922 0.00020385699227368735
0.06499999999999999 0.00019420369828396233 -0.00013665938995707783 -0.008156989807978084 0.0002728416596389834
0.06999999999999999 0.00015326341379132136 -0.00013512497883519728 -0.008250569470849553 0.00034119474740870563
0.075 0.00011198433360506965 -0.0001332516271568239 -0.008289695606611403 0.0004085643913239508
0.08 7.064769637887824e-05 -0.0001310455117139349 -0.008273083149232242 0.0004744994650293568
0.085 2.9551630503610316e-05 -0.00012851502813461535 -0.00819515603996123 0.0005385335295069581
0.09000000000000001 -1.0973405035433204e-05 -0.000125670598977827 -0.008047904074186256 0.0006002803891045454
0.09500000000000001 -5.055872983145138e-05 -0.00012252410322046922 -0.007823093884901093 0.0006595058115284984
0.10000000000000002 -8.8801412447298e-05 -0.00011908807288807041 -0.0075142723051521655 0.0007161595239838607
0.10500000000000002 -0.00012527633775955005 -0.00011537485310542106 -0.007118209332090948 0.0007703629015549211
0.11000000000000003 -0.00015955344728911525 -0.00011139593771315737 -0.006635640327644354 0.0008223526394141693
0.11500000000000003 -0.00019121688547966975 -0.00010716167660474937 -0.006071320504209835 0.0008723867932960323
0.12000000000000004 -0.0002198830717588529 -0.00010268148515066647 -0.005433512064699497 0.0009206313253840703
0.12500000000000003 -0.00024521543673768076 -9.796454412074745e-05 -0.004733090865730059 0.0009670631635674172
0.13000000000000003 -0.0002669344879743657 -9.3020791462603e-05 -0.0039824788731227 0.0010114316944514253
0.13500000000000004 -0.00028482279241656694 -8.786186535696475e-05 -0.0031945862089918856 0.0010533025658770265
0.14000000000000004 -0.0002987252137052754 -8.25016510422362e-05 -0.0023818959423924126 0.0010921716838547379
0.14500000000000005 -0.00030854525268390887 -7.695623226028e-05 -0.001555769564719204 0.0011276042031139986
0.15000000000000005 -0.00031423862929018387 -7.124327498098798e-05 -0.0007260090840191698 0.0011593453055919849
0.15500000000000005 -0.0003158054065843241 -6.538106964746465e-05 9.930447238541695e-05 0.0011873658721277928
0.16000000000000006 -0.0003132820260341729 -5.938755507068488e-05 0.0009136918944593758 0.0012118338396815967
0.16500000000000006 -0.0003067345243284586 -5.327966371446863e-05 0.0017119124566991467 0.0012330159491868945
0.17000000000000007 -0.0002962538776101892 -4.707321331620315e-05 0.0024894438449093864 0.0012511459838580163
0.17500000000000007 -0.0002819539742299759 -4.0783273980514456e-05 0.003241906342237033 0.0012663367608800559
0.18000000000000008 -0.00026397223405361103 -3.442474139722998e-05 0.003964531714888125 0.0012785658414164727
0.18500000000000008 -0.00024247231842740302 -2.8012878531352703e-05 0.004651800670225911 0.0012877056014347337
0.19000000000000009 -0.00021764789980786847 -2.156366907026669e-05 0.005297334023239557 0.0012935765517380743
0.1950000000000001 -0.00018972627247264284 -1.5093905602274471e-05 0.005894046338614227 0.001296008094289063
0.2000000000000001 -0.00015897065745440475 -8.621033386189969e-06 0.006434521771948847 0.0012948853180261275
0.2050000000000001 -0.0001256803519457117 -2.162842543260851e-06 0.006911530150784096 0.0012901700312702839
0.2100000000000001 -9.018832750697092e-05 4.262878846073709e-06 0.007318576780752921 0.0012818973325074553
0.2150000000000001 -5.2856385704208586e-05 1.0638638616985996e-05 0.007650380096954616 0.0012701557923402293
0.2200000000000001 -1.4068425620794578e-05 1.694742987484038e-05 0.007903193844747962 0.0012550614002650863
0.22500000000000012 2.5777320884712296e-05 2.317280728469928e-05 0.008074927943310654 0.0012367340971722318
0.23000000000000012 6.627612390594506e-05 2.929887390786673e-05 0.008165066255819139 0.0012152822459643444
0.23500000000000013 0.00010702379597415934 3.5310217752757e-05 0.008174421318341002 0.0011907964911503362
0.24000000000000013 0.00014762234250934037 4.119183724522746e-05 0.008104796753732872 0.0011633514632521111
0.24500000000000013 0.00018768399356997034 4.692908477171506e-05 0.007958640664670889 0.001133012308699236
0.2500000000000001 0.0002268337620904004 5.250764362616997e-05 0.007738765450066092 0.0010998429036877203
0.2550000000000001 0.000264710966569881 5.791354091561063e-05 0.007448184491801152 0.0010639133013867035
0.2600000000000001 0.0003009703070318559 6.313318990287461e-05 0.007090081690644408 0.0010253049672351326
0.2650000000000001 0.00033528307200744734 6.815345061091799e-05 0.006667895446479947 0.0009841133136866149
0.27000000000000013 0.0003673389038220398 7.296169680318793e-05 0.006185473046818605 0.0009404477868766459
0.27500000000000013 0.0003968483142922363 7.754587974060159e-05 0.0056472399595997175 0.000894430261997107
0.28000000000000014 0.00042354589141843646 8.189458307134717e-05 0.00505833209084041 0.0008461927054823114
0.28500000000000014 0.0004471939315784379 8.599706725560818e-05 0.004424654335380411 0.0007958749222037459
0.29000000000000015 0.0004675861116449631 8.984330469792232e-05 0.003752850003957413 0.0007436228142681384
0.29500000000000015 0.0004845507951361794 9.342400752345575e-05 0.0030501870407123807 0.0006895871034286183
0.30000000000000016 0.0004979536354959846 9.673064893932215e-05 0.0023243837588199506 0.0006339221422065819
0.30500000000000016 0.0005076992702766348 9.97554775254185e-05 0.0015834063982145402 0.0005767844342422657
0.31000000000000016 0.0005137320557351832 0.00010249152296280123 0.0008352721594995366 0.0005183307726051873
0.31500000000000017 0.0005160359347866628 0.00010493259250869344 8.788516958903314e-05 0.000458716320029395
0.3200000000000002 0.0005146336320971945 0.0001070732599159456 -0.0006510787119884259 0.00039809326758642564
0.3250000000000002 0.0005095854114601228 0.00010890885145023801 -0.0013742359221746575 0.00033661071956250614
0.3300000000000002 0.0005009876118727274 0.00011043543571453637 -0.002074517812511431 0.00027441612586026447
0.3350000000000002 0.0004889711139241804 0.00011164982393465847 -0.0027451694258245757 0.0002116580396067918
0.3400000000000002 0.0004736998002137782 0.00011254958474493648 -0.0033797443182659176 0.00014848942107119172
0.3450000000000002 0.0004553689874348399 0.00011313307293192229 -0.003972112462641272 8.507037506794678e-05
0.3500000000000002 0.0004342037440649704 0.00011339946653086616 -0.0045164917330669935 2.15692609845837e-05
0.3550000000000002 0.00041045697876102016 0.00011334880298343245 -0.00500750525419813 -4.1838424124498313e-05
0.3600000000000002 0.00038440719452909056 0.00011298200476311804 -0.005440258739183836 -0.00010497311135094708
0.3650000000000002 0.0003563558495833785 0.0001123008903367792 -0.005810425060520631 -0.00016765450587020655
0.3700000000000002 0.00032662431158789196 0.00011130816856417397 -0.006114326904074756 -0.00022970508914768248
0.3750000000000002 0.0002955504295808209 0.00011000741102042827 -0.006349010802572649 -0.00029095508586319055
0.3800000000000002 0.00026348481444760097 0.00010840300368540265 -0.006512296339258858 -0.0003512464461331178
0.38500000000000023 0.00023078697371378687 0.0001065000914851795 -0.006602790706822233 -0.0004104329265643778
0.39000000000000024 0.00019782144036900595 0.0001043045308769669 -0.0066198759300528445 -0.0004683769624414611
0.39500000000000024 0.0001649539919358345 0.00010182285980984626 -0.006563681195473334 -0.0005249452593149278
0.40000000000000024 0.00013254800591905314 9.906228653528554e-05 -0.006435050961717249 -0.0005800048756561486
0.40500000000000025 0.00010096095827127893 9.603069172721759e-05 -0.006235515692654115 -0.0006334211149643058
0.41000000000000025 7.051239005428922e-05 9.273699917992581e-05 -0.0059758657003194885 -0.000684948283380735
0.41500000000000026 4.1427023855150624e-05 8.919172852544718e-05 -0.005680753038042602 -0.0007342119416144047
0.42000000000000026 1.3828309356783697e-05 8.54066833857331e-05 -0.005371077729596214 -0.0007809864764663655
0.42500000000000027 -1.2207111853623775e-05 8.139396879826635e-05 -0.0050507549132855455 -0.0008253098622686104
0.43000000000000027 -3.6588637393877854e-05 7.71654888716243e-05 -0.004710915541035473 -0.0008672725192459367
0.4350000000000003 -5.917566967192367e-05 7.273338292825351e-05 -0.004337957129388334 -0.0009067837903470287
0.4400000000000003 -7.977335948994302e-05 6.811091792091259e-05 -0.003920603717601223 -0.0009435289078651952
0.4450000000000003 -9.8151773538252e-05 6.331294786260724e-05 -0.00345375523269076 -0.0009771445167575067
0.4500000000000003 -0.00011407539857966054 5.83555584960857e-05 -0.0029392461075916643 -0.0010074198041259272
0.4550000000000003 -0.00012733194061032016 5.325520155798763e-05 -0.0023846001050570383 -0.0010343681447772621
0.4600000000000003 -0.00013775367254563464 4.80278880577896e-05 -0.0018008653775283788 -0.001058158356249601
0.4650000000000003 -0.00014522852481536896 4.2688871468337525e-05 -0.001200282487388852 -0.0010789736268158158
0.4700000000000003 -0.0001497010203229121 3.72529108728023e-05 -0.0005942634252895113 -0.0010968865197153585
0.4750000000000003 -0.00015116520913349696 3.173488479536399e-05 7.992907578855887e-06 -0.0011118117636779706
0.4800000000000003 -0.000149653078780565 2.61503986466044e-05 0.0006000579869380723 -0.0011235432368840426
0.4850000000000003 -0.00014522237505625035 2.0516108381218867e-05 0.0011779980820011953 -0.0011318384647396994
0.4900000000000003 -0.00013794726100831156 1.4849663042652839e-05 0.0017394638419501712 -0.001136504575031254
0.49500000000000033 -0.0001279138892324866 9.169330630279943e-06 0.002282500127953604 -0.0011374551898552646
0.5000000000000003 -0.00011522116385022374 3.493455870088452e-06 0.0028044804370963555 -0.0011347291868201567
0.5050000000000003 -9.998529589427818e-05 -2.160093018972048e-06 0.003301487848557376 -0.0011284771906990001
0.5100000000000003 -8.234572376422666e-05 -7.774367120353537e-06 0.0037682848434208924 -0.001118927341508396
0.5150000000000003 -6.246985156867224e-05 -1.3333589677408386e-05 0.00419880444566117 -0.0011063393569783057
0.5200000000000004 -4.055478930886647e-05 -1.8823173286962314e-05 0.0045869314583862845 -0.0010909528271606927
0.5250000000000004 -1.682549190250293e-05 -2.4229503416108022e-05 0.004927282995928478 -0.0010729406777883197
0.5300000000000004 8.470101665408736e-06 -2.953956031897728e-05 0.005215748329737143 -0.001052384057946207
0.5350000000000004 3.506753874366053e-05 -3.474050882719057e-05 0.0054496717666843685 -0.00102927886217706
0.5400000000000004 6.26923589458761e-05 -3.981939611947746e-05 0.0056277023528394894 -0.00100357133686474
0.5450000000000004 9.106541923986633e-05 -4.476305585654483e-05 0.005749436067975507 -0.0009752091918915217
0.5500000000000004 0.00011990647966969581 -4.955824367127923e-05 0.005815012099549816 -0.0009441903707135824
0.5550000000000004 0.00014893616338051974 -5.419196240084856e-05 0.0058247990702642305 -0.0009105968373973594
0.5600000000000004 0.00017787688531162305 -5.8651885775792834e-05 0.005779248208248596 -0.0008746051395263485
0.5650000000000004 0.00020645351753403873 -6.292675810640191e-05 0.00567891747361437 -0.0008364693616882994
0.5700000000000004 0.00023439442878150918 -6.700665368390354e-05 0.005524610151999565 -0.0007964814401895826
0.5750000000000004 0.00026143325473573786 -7.08830209627774e-05 0.005317556661521571 -0.0007549206259119968
0.5800000000000004 0.0002873114514259645 -7.454850711451425e-05 0.00505957641164511 -0.0007120091176336671
0.5850000000000004 0.00031178142319390756 -7.799663445865607e-05 0.004753171861360268 -0.0006678895880688632
0.5900000000000004 0.00033460986568514817 -8.122143636942261e-05 0.004401535570577892 -0.0006226278388157857
0.5950000000000004 0.0003555809435165924 -8.421715466637794e-05 0.004008479100309215 -0.0005762352980099444
0.6000000000000004 0.00037449901093608573 -8.697806155519294e-05 0.0035783124427035684 -0.0005287002369489674
0.6050000000000004 0.00039119072901291907 -8.949842275730521e-05 0.0031157086811006984 -0.0004800176717521809
0.6100000000000004 0.00040547954807090836 -9.177077717653984e-05 0.0026174739097134594 -0.00042967020555916
0.6150000000000004 0.000417135857381401 -9.378407518699852e-05 0.002068010887348891 -0.00037675396121415045
0.6200000000000004 0.0004258737191710771 -9.5527292331192e-05 0.0014557276058535726 -0.00032163534221218114
0.6250000000000004 0.00043140493041851635 -9.699570526821785e-05 0.0007855771952641685 -0.00026620216668841144
0.6300000000000004 0.0004334999630877523 -9.819231518334512e-05 7.538867602684823e-05 -0.00021214168083560046
0.6350000000000005 0.00043202663964536647 -9.912337288338693e-05 -0.0006515002996393474 -0.00015965631849982308
0.6400000000000005 0.0004269592424139823 -9.979151799912461e-05 -0.001372886825176646 -0.00010733776471712371
0.6450000000000005 0.00041836495165958887 -0.00010019083800623385 -0.002071547503179595 -5.298149055900543e-05
0.6500000000000005 0.0004063787659667195 -0.00010030769522942351 -0.0027364266324214556 4.874833754024352e-06
0.6550000000000005 0.00039117644199973545 -0.00010012648736983792 -0.0033620786208082634 6.604808019463997e-05
0.6600000000000005 0.0003729520358815852 -9.963515093178513e-05 -0.003947089438746644 0.00012928014545727888
0.6650000000000005 0.0003519036790244623 -9.882735469817286e-05 -0.004492066445321831 0.00019320522627839544
0.6700000000000005 0.0003282283868535629 -9.770168087541026e-05 -0.004997751965557511 0.00025692252346754853
0.6750000000000005 0.00030212452767039433 -9.625956949784256e-05 -0.005463628537860629 0.0003200660309940432
0.6800000000000005 0.00027379928953791266 -9.450372991886766e-05 -0.005887185521427626 0.0003825407359356967
0.6850000000000005 0.00024347788020831485 -9.243784269656607e-05 -0.00626389898563116 0.000444182208792979
0.6900000000000005 0.00021141127171964147 -9.006737797425529e-05 -0.006587841613642214 0.0005045506944630716
0.6950000000000005 0.0001778801027458865 -8.740041831062015e-05 -0.006852689843259145 0.0005630414268594664
0.7000000000000005 0.00014319359712303137 -8.444778650831819e-05 -0.0070528347894810405 0.0006190935743270731
0.7050000000000005 0.00010768379368525371 -8.122271048799715e-05 -0.007184290469047776 0.0006722596258661138
0.7100000000000005 7.169666080542036e-05 -7.774047808533496e-05 -0.007245159520172234 0.0007221621187665471
0.7150000000000005 3.558224232985685e-05 -7.401820632798803e-05 -0.007235612254685714 0.0007684582869378585
0.7200000000000005 -3.142424215701878e-07 -7.00744197660412e-05 -0.007157503577871754 0.0008109087928493547
0.7250000000000005 -3.565909039428272e-05 -6.592818871945308e-05 -0.007013805916671051 0.0008494906577817497
0.7300000000000005 -7.013411827912208e-05 -6.159809364449098e-05 -0.006808023568180549 0.0008844054178298163
0.7350000000000005 -0.0001034382334135775 -5.7101556760721234e-05 -0.006543731751852685 0.0009159515576347126
0.7400000000000005 -0.0001352874177574237 -5.245478947349391e-05 -0.006224343789708321 0.0009443764977912165
0.7450000000000006 -0.00016541424165721075 -4.7673166898153096e-05 -0.005853128735551499 0.0009698100438795109
0.7500000000000006 -0.00019356785246633923 -4.277169096111866e-05 -0.005433400852759842 0.0009922805235762474
0.7550000000000006 -0.00021951492365354652 -3.7765219691805046e-05 -0.00496876027524934 0.0010117937870906387
0.7600000000000006 -0.00024304157581303554 -3.266833658418372e-05 -0.0044632885291259715 0.0010284178053550346
0.7650000000000006 -0.0002639559102821376 -2.749530228727745e-05 -0.00392163512478173 0.0010422219783097482
0.7700000000000006 -0.00028209072563326054 -2.226050571239868e-05 -0.0033490111584266666 0.001053135542773003
0.7750000000000006 -0.0002973061717185532 -1.697904951868459e-05 -0.0027511522904755184 0.0010609572006263488
0.7800000000000006 -0.0003094921711783577 -1.1666911919606254e-05 -0.0021342552294120777 0.0010654956603520904
0.7850000000000006 -0.00031857039285951294 -6.340866591823119e-06 -0.001504866558366142 0.0010665998384271058
0.7900000000000006 -0.00032449553549317167 -1.0187118236852644e-06 -0.0008697206219821091 0.0010640418976630422
0.7950000000000006 -0.00032725576914040266 4.280590566545922e-06 -0.00023555583080343834 0.0010575752402555696
0.8000000000000006 -0.0003268723402047313 9.537650316401858e-06 0.00039105204542448646 0.0010471876859336614
0.8050000000000006 -0.0003233984266525908 1.4733880486752365e-05 0.0010038311720750176 0.0010331630761195583
0.8100000000000006 -0.00031691745942580285 1.9852329799466273e-05 0.0015968988128223088 0.0010159117767791215
0.8150000000000006 -0.00030754122634890635 2.4877734236625898e-05 0.0021647732003901438 0.0009957763998764964
0.8200000000000006 -0.0002954079623707778 2.9795958711390652e-05 0.0027023558857488944 0.0009729268987134637
0.8250000000000006 -0.0002806805046946803 3.4593348403676866e-05 0.0032049109050164004 0.0009473944602093882
0.8300000000000006 -0.000263544590982559 3.925626953380293e-05 0.0036680283460266243 0.0009191373698091984
0.8350000000000006 -0.00024420732707580717 4.377069025014377e-05 0.004087587800813416 0.0008880341018896458
0.8400000000000006 -0.00022289569247349594 4.812174052989601e-05 0.004459763990018177 0.0008538730122915894
0.8450000000000006 -0.000199854881784145 5.2293790757225456e-05 0.004781079746574157 0.0008165100402236121
0.8500000000000006 -0.0001753463145306028 5.627127532827764e-05 0.0050484891071275635 0.0007760403485827091
0.8550000000000006 -0.00014964519506847906 6.0039309477507435e-05 0.005259479113282891 0.0007326617876637241
0.8600000000000007 -0.00012303766407616157 6.358338370360608e-05 0.00541214735148287 0.0006864188529066163
0.8650000000000007 -9.581768794075796e-05 6.68886331926799e-05 0.005505239741389325 0.0006371674241122827
0.8700000000000007 -6.828379135742635e-05 6.993964345952675e-05 0.005538171361459111 0.0005847781311466727
0.8750000000000007 -4.073574848313666e-05 7.272107386295523e-05 0.00551102320395374 0.0005293280943438625
0.8800000000000007 -1.3471349901733598e-05 7.521858304606471e-05 0.0054245152869919445 0.0004711097145899965
0.8850000000000007 1.3216673899335563e-05 7.741950615685472e-05 0.005279967282180439 0.00041052601492605565
0.8900000000000007 3.904350509306709e-05 7.931301512357353e-05 0.005079246978012538 0.00034796037893664467
0.8950000000000007 6.373490291394779e-05 8.088991852066643e-05 0.004824736226891057 0.00028372012245599446
0.9000000000000007 8.702980312191855e-05 8.214257861752228e-05 0.004519330280303154 0.00021810768934746663
0.9050000000000007 0.00010868283691387037 8.306517190758561e-05 0.004166420116788467 0.00015151197733341906
0.9100000000000007 0.00012846663500593047 8.36542944587168e-05 0.0037698360484228477 8.44774363330282e-05
0.9150000000000007 0.00014617388539234222 8.390957141680977e-05 0.0033337953067175113 1.7670832314773538e-05
