X-distance from edge,XY-stress (shear)
0,5015319.35
6.79E-07,5015998.36
4.18E-06,5019499.3
4.89E-06,5020205.5
7.81E-06,5023125.17
1.16E-05,5026888.85
1.48E-05,5030088.42
1.82E-05,5033494.47
2.10E-05,5036300.66
2.47E-05,5040005.21
2.77E-05,5043058.4
3.09E-05,5046213.15
0.001229358,6244677.07
