# Results for "element" with Id # 221 for search config "initial" at position: x0: 0.57; y0: 0.27; z0: 0
# time VELOCITY_X VELOCITY_Y MESH_DISPLACEMENT_X MESH_DISPLACEMENT_Y MESH_VELOCITY_X MESH_VELOCITY_Y
0.1 1.3883462210378452e-05 -3.923817404196665e-06 0.0 0.0 0.0 0.0
0.2 5.0091017585724915e-05 1.324246148489219e-05 2.9067549615082888e-05 -4.997178627017832e-06 0.0005503914720015693 -9.46211337660181e-05
0.30000000000000004 0.00012084246831471313 6.07801162006435e-06 4.635406332158269e-05 -1.0389148186414003e-05 -0.00012781280681313596 -2.385206595424091e-05
0.4 0.0002053726069661123 4.485588981134784e-05 7.410342778371666e-05 -1.1711544530987164e-05 0.0005853250056564637 2.557796497370889e-06
0.5 0.00033194227955598166 3.694376337268634e-05 0.0001273758092307075 -2.6104305216360316e-05 0.0005467738976594391 -0.0002746243727787948
0.6 0.00045402040291563886 9.220109510640873e-05 0.0001711599264758356 -3.020237891666039e-05 0.0003226822821941894 0.00014927964158645396
0.7 0.0006322201345204275 7.831510755525639e-05 0.00024353703037709623 -4.3531816304443705e-05 0.0010716800587898324 -0.00035292875209301966
0.7999999999999999 0.0007948215052107556 0.00015606102532641174 0.0003587614449741888 -6.405627394045658e-05 0.0012767018183694682 -0.00011493185740990852
0.8999999999999999 0.0010362893372455628 0.0001249860723178692 0.0004685613545432178 -8.352402219840572e-05 0.0009388591034001292 -0.0002396760570005105
0.9999999999999999 0.0012640857874839293 0.00021487588115023527 0.000612998969600021 -0.00010228113895235364 0.001873429289456011 -0.00015588324752552815
1.0999999999999999 0.0015697873968015526 0.0001635954275123414 0.0007795353008228912 -0.000134633017901454 0.0015473261846806357 -0.0004640049005775641
1.2 0.0018346716450631493 0.000257307140656923 0.0009850478620223413 -0.00017995472183078895 0.002470164852197137 -0.0004664129272147014
1.3 0.0021808703286773064 0.00019812009244204136 0.0012170636591634996 -0.00022961291291766794 0.002257228483207309 -0.0005179892410657058
1.4000000000000001 0.002483096601847933 0.00027405661747385054 0.0014512666114830045 -0.00027561156915840946 0.0023858486593724927 -0.00041298211557631344
1.5000000000000002 0.002889402803801857 0.00020351831522674035 0.0017383140098975063 -0.0003277305296608792 0.0033200318644914604 -0.0006096768091916429
1.6000000000000003 0.003252589714552867 0.0002624222397949351 0.002068517315978121 -0.0003882363197711588 0.0033440006777684566 -0.0006160733362056326
1.7000000000000004 0.00371937679544742 0.0001561485752780737 0.0023938682208725424 -0.0004524821405147416 0.003159738791791109 -0.0006626730628868206
1.8000000000000005 0.004123187615719174 0.0001984362746135807 0.002777490029394968 -0.0005366625043027081 0.004431609573199179 -0.0010057972177330253
1.9000000000000006 0.0046363579030805286 6.632492387088455e-05 0.003185143367839784 -0.0006161916931909646 0.0038462011048599745 -0.000629062850674135
2.0000000000000004 0.005092892832197124 7.10641879368698e-05 0.0035780465143970906 -0.0006914777710226651 0.003942338873183189 -0.0008329307555055411
2.1000000000000005 0.005662918213096757 -9.829300307470526e-05 0.004013280512214804 -0.0007776847675915766 0.004740247226065378 -0.000909312272786011
2.2000000000000006 0.0061720562911498356 -0.00013316521997693123 0.00448377757876855 -0.0008743523304303652 0.004721172847906995 -0.0010177121755764879
2.3000000000000007 0.006792375584835781 -0.0003404751893736 0.0049875731027418015 -0.0009808803298517598 0.005307797382018484 -0.0011150516633021167
2.400000000000001 0.007336638062819192 -0.00041941056188095246 0.005497590817534778 -0.001090488296273355 0.004957020789593592 -0.0010837904897158968
2.500000000000001 0.007991296266350029 -0.0006676543632100819 0.006005617750535775 -0.0011988244292832813 0.005156452674630933 -0.001079731349934574
2.600000000000001 0.008573785962985555 -0.0007950571064200791 0.006499710179363622 -0.0013024571008685064 0.004770111912289887 -0.0009980864840028992
2.700000000000001 0.009272634967537833 -0.0010930585811659613 0.006982925993496272 -0.0014032933207337157 0.004856437865047822 -0.0010119731633226544
2.800000000000001 0.009905932422675302 -0.0012727736617123009 0.007472754323964874 -0.0015068396766176853 0.004949207891507309 -0.0010587690016568318
2.9000000000000012 0.010648656999295653 -0.0016212981982389784 0.007971233980508714 -0.0016151760653722272 0.005019386234754392 -0.0011078750616411543
3.0000000000000013 0.011320472146890147 -0.0018521886714038343 0.008472692356365082 -0.0017274321768640198 0.005014266547729514 -0.0011383179022336977
3.1000000000000014 0.012088002012650503 -0.002249251643550689 0.008957217046082155 -0.0018371487007254675 0.004692895092248489 -0.001061763487119033
3.2000000000000015 0.012788292965562102 -0.002536146588503038 0.009409508715009604 -0.001938835407942053 0.004349982986470546 -0.0009713144989178506
3.3000000000000016 0.013585960229782723 -0.0029889830203964217 0.009834182239088943 -0.0020323275749629397 0.004136922184248658 -0.000897743494486523
3.4000000000000017 0.014326853311366277 -0.0033280976808325977 0.010258775988222503 -0.002126366468236566 0.0043335491871038375 -0.0009747601517679956
3.5000000000000018 0.015153894701956192 -0.003833647069618769 0.010658685820105764 -0.002217978262026064 0.0037158066405455596 -0.0008697815141637835
3.600000000000002 0.01592894895609248 -0.004234682291267575 0.011028344152892668 -0.0023022960367655287 0.003634401252528529 -0.0008109043265292668
3.700000000000002 0.016782649553699795 -0.004790451617099257 0.011387135844005244 -0.0023846110203986025 0.0035522161209635495 -0.0008322975490831724
3.800000000000002 0.017582928801238747 -0.005245237941669266 0.011738260447990534 -0.0024673806849326886 0.0034677105932173105 -0.0008254582691269971
3.900000000000002 0.01845641978695215 -0.005857249018394449 0.012050309599027715 -0.002540179547517863 0.0028063612344050065 -0.0006399769645777357
4.000000000000002 0.019283138246400024 -0.006361190360849006 0.012353931552597487 -0.0026118946000469557 0.0031985444291340844 -0.0007739881385850079
4.100000000000001 0.020177648044431992 -0.0070322497440755555 0.012614068579008887 -0.002671895255232392 0.002104670182154143 -0.00045650548005852457
4.200000000000001 0.021029913586481555 -0.0075801827982135105 0.01286879943926204 -0.002732693842275344 0.0028607675962105863 -0.0007192105711507587
4.300000000000001 0.02194644485594155 -0.008307939677866801 0.013083917088656902 -0.0027822963788075943 0.001588003697220132 -0.00032012955068199994
4.4 0.02282013467898414 -0.008892818430654256 0.013297929191752331 -0.002834719785434015 0.0025309974219697206 -0.0006741540486380863
4.5 0.023751551257349488 -0.009664320620085008 0.013474999519405622 -0.0028781001580695576 0.0011797693432225053 -0.0002507309639013215
4.6 0.024646215053336806 -0.010289310430354626 0.013624801647103113 -0.0029133729358289664 0.0016703324059857566 -0.000407755048078316
4.699999999999999 0.02559577912702584 -0.011085499235183776 0.013762114214489585 -0.0029456578036574665 0.001168240959097001 -0.00026646487146336984
4.799999999999999 0.026509090354289055 -0.01174206248205926 0.013882814427863287 -0.002973314315086446 0.0011930449364264586 -0.00027131436019742683
4.899999999999999 0.027475607251121942 -0.012545340102336135 0.01399791129065184 -0.0030010302119077414 0.001127172462703905 -0.0002862727024478779
4.999999999999998 0.028402120290171563 -0.01321747493708701 0.014107226144735432 -0.0030268008449008494 0.0010549138059250441 -0.0002322053700579601
5.099999999999998 0.02937641744178707 -0.014009823290673167 0.01420964061870315 -0.003052905335524107 0.0009938014000752842 -0.0002832079089847134
5.1999999999999975 0.030309542082904463 -0.014678572323856241 0.01430714053801551 -0.003075871906438507 0.000954844317572184 -0.00018612258495046948
5.299999999999997 0.03128766210038883 -0.015441292515558412 0.014398383992084908 -0.0030984504133875447 0.0008727873021901477 -0.00025368627791245226
5.399999999999997 0.03222590827019771 -0.01608565863515274 0.014490950300681461 -0.0031192706831568774 0.0009678833739931902 -0.00017394532294943776
5.4999999999999964 0.033204063406474596 -0.016797793378585796 0.014587888486798529 -0.003142800705290879 0.0009783070448389408 -0.00028321662869682066
5.599999999999996 0.0341397242768665 -0.01739555072167149 0.014695355047435178 -0.0031681478495319926 0.0011595584345833149 -0.00023589427237527777
5.699999999999996 0.03510462136057734 -0.01803384011363345 0.014814568322199375 -0.003197991389913236 0.0012336038311448368 -0.0003489152203220522
5.799999999999995 0.036024884445905445 -0.01856613899142175 0.014939392209703806 -0.003229030886346491 0.0012631526583585483 -0.00028485107364738737
5.899999999999995 0.0369652608885297 -0.019107694318369523 0.01507647712326388 -0.0032625272834720595 0.0014685826144877642 -0.00037325637129478006
5.999999999999995 0.037865191579545925 -0.019561689714637037 0.015213067553360611 -0.003296994200915824 0.001287460302137636 -0.0003266324931131907
6.099999999999994 0.03877484669602591 -0.019982344050848314 0.015372692537948304 -0.003333599203688309 0.0018567690630713633 -0.00039628915317703337
6.199999999999994 0.03964437965523096 -0.020334728584962596 0.015521899403881365 -0.0033661566481922355 0.0012079552329716781 -0.00026827341177389544
6.299999999999994 0.04050654584632342 -0.020627660672469968 0.01567038621638857 -0.0034067414205398317 0.0016786612797524993 -0.000518776909271749
6.399999999999993 0.04134539288262727 -0.020860294613442427 0.01581686907448043 -0.003435480219374732 0.0013185114589889773 -9.981763009099626e-05
6.499999999999993 0.042162640680105244 -0.021011434708733505 0.015994487926600763 -0.0034803647883186405 0.0021499593196135816 -0.0007280164642458745
6.5999999999999925 0.042950991566866485 -0.02111796969951733 0.016162770497460385 -0.00351811050384145 0.0013295837324670376 -0.00011422416840775096
6.699999999999992 0.0437000806710973 -0.021118480336813593 0.01636457646400584 -0.003570256667662817 0.0025625615601366685 -0.0008319685872684207
6.799999999999992 0.04441153795212212 -0.021091414373364068 0.016567729356053267 -0.0036206531588887365 0.0016567942068187274 -0.00027201441328522804
6.8999999999999915 0.045090319892385225 -0.020937598235305915 0.016774973467583543 -0.0036716530715780486 0.0023585882156634433 -0.0006700818319081165
6.999999999999991 0.04573744133943135 -0.020771555579744333 0.016978864343488678 -0.003719078472016411 0.0018213024895608822 -0.0003389207804494402
7.099999999999991 0.04633867869907651 -0.02046807478745408 0.01720010804996557 -0.0037732092025543973 0.0025091401525596294 -0.0006901838240648047
7.19999999999999 0.046906388975066146 -0.020166579518021765 0.0174231073699966 -0.00382749868306829 0.002039558932109324 -0.0004426647801954352
7.29999999999999 0.047414599516304265 -0.019718671953587983 0.0176576298779277 -0.0038867778781321418 0.002572330699911463 -0.0007026095339686245
7.39999999999999 0.047894212659528076 -0.019283739797270858 0.01788902968948644 -0.003944530748905914 0.002130146912873403 -0.0004891540421022763
7.499999999999989 0.04830625362063916 -0.018696734206856826 0.018121750960044494 -0.004002938038955888 0.002462112263870667 -0.000648826757111603
7.599999999999989 0.04869832592157566 -0.0181333737976053 0.018348812239138354 -0.004059015096429402 0.002131902241370035 -0.0004977360834195284
7.699999999999989 0.04901397796173554 -0.01741841492406845 0.018573921435637037 -0.00411489863941319 0.0023275073562833122 -0.0005994586109237322
7.799999999999988 0.049314513082721806 -0.016737257420932166 0.01879577711228544 -0.004170235810399395 0.002141751324278984 -0.0005224570785042104
7.899999999999988 0.049528849331857555 -0.01590913938884153 0.019012639405459858 -0.00422501129302068 0.0021751318224864005 -0.000562666396177802
7.999999999999988 0.04973266985604195 -0.015121590409049089 0.019225426770070504 -0.004279131246928253 0.0020922461225526454 -0.0005266186843206931
8.099999999999987 0.04984451911762269 -0.014195293227037373 0.01942784419197225 -0.004330852377633719 0.001956185728802912 -0.0005052563752927164
8.199999999999987 0.04995226746859922 -0.013313944961811281 0.019623771632963513 -0.004380736007588334 0.00195476855648663 -0.000492565352568953
8.299999999999986 0.049964273958892774 -0.012307086796449554 0.019808583471839215 -0.004427999846425977 0.001754549462741717 -0.00045412267270567843
8.399999999999986 0.04997927606477304 -0.01135070128415636 0.01998383700840175 -0.00447251176500311 0.0017369770805552446 -0.0004346933834830056
8.499999999999986 0.04989036096387493 -0.010283829051563394 0.020160487552827438 -0.004518476487761035 0.0017951586927623 -0.0004812452126069851
8.599999999999985 0.04981029358695005 -0.009265279212436514 0.020312389050093152 -0.004557969410162523 0.0012755885666324916 -0.00032108003198796307
8.699999999999985 0.049631767448735396 -0.008137156839428018 0.020438390402262713 -0.004592371833078613 0.0012106841993059394 -0.0003530444379474839
8.799999999999985 0.04947000760621574 -0.007073498894885781 0.020551479249071587 -0.0046238523924544035 0.001064124422990437 -0.0002856373908967508
8.899999999999984 0.049217242468746515 -0.005905062000537364 0.02063751207078159 -0.00464184879959908 0.000667348734726947 -7.980927669208393e-05
8.999999999999984 0.04895975375604525 -0.004809993411609989 0.02072454310084415 -0.004667495880277375 0.001027964420836424 -0.0004020488957064268
9.099999999999984 0.048608636503709106 -0.003612374954060602 0.020767806450556443 -0.00468068451037658 -6.936135777787432e-05 8.498386222716306e-05
9.199999999999983 0.0482901649860311 -0.0024839593897147748 0.02077897927260461 -0.004680296465258737 0.0001930013066186848 -3.0034477739635816e-05
9.299999999999983 0.047880630229049655 -0.0012849182128446019 0.020785113503713384 -0.004678370245726962 -1.869665140158254e-05 4.60142266002363e-05
9.399999999999983 0.04749726408230808 -0.0001668006591347683 0.020774383131427467 -0.004673897197733001 -0.00020996496980555909 5.296940458044115e-05
9.499999999999982 0.04701337752595554 0.0010144420078519777 0.020765930893739893 -0.004674064472381546 2.070001180065728e-05 -5.237851607825531e-05
9.599999999999982 0.04654971564270444 0.0021089520063795513 0.020741596316263586 -0.004670536801329028 -0.00046219856036381875 0.00010705394527231034
9.699999999999982 0.04600302906871314 0.003276662672996467 0.020682340365970994 -0.0046578349251333705 -0.0007454489083394025 0.00015710573915025995
9.799999999999981 0.04548775563082237 0.004346453014489875 0.020604997111254977 -0.004636686904897982 -0.0008081878375723634 0.00026033300512471393
9.89999999999998 0.044895302904784176 0.005474172666777631 0.02052103661579313 -0.004614077671571095 -0.0008694142384847261 0.00020230280877687174
9.99999999999998 0.04433651657104345 0.006499912161351065 0.020406735346483455 -0.004583290924803948 -0.0013911116136993125 0.00039662454359690896
10.09999999999998 0.04371249602563398 0.007586090099876035 0.02029152175356384 -0.004554703082363916 -0.000972431369298735 0.00020125437075215342
10.19999999999998 0.043137941201092295 0.008570371010036718 0.020144857084271224 -0.004518737001211052 -0.0018718984484522023 0.0004846084942488324
10.29999999999998 0.042531754985674644 0.009629475254130219 0.019969798179458285 -0.004473414983958446 -0.001711157255157147 0.00044818408290229106
10.399999999999979 0.04197409077994774 0.010568943711638266 0.019792802615676203 -0.004426054195131544 -0.0017945519736110563 0.0004881468564601325
10.499999999999979 0.04138762087633313 0.01156852763965527 0.019613938414696233 -0.004378171879764845 -0.001795897807465376 0.00047519699584024934
10.599999999999978 0.04084257434680458 0.012448637081559365 0.01943885582215353 -0.00433341368650882 -0.001707510113934841 0.00042086994972288246
10.699999999999978 0.040269441195062386 0.013377062182025935 0.019275464749662182 -0.004291750204920298 -0.0015630276491393053 0.00040974385823878696
10.799999999999978 0.03973506821059388 0.014191222586950604 0.019110929944704463 -0.0042515951887165965 -0.0017105633498912618 0.0003942652508093737
10.899999999999977 0.039182764765727865 0.01504789603329834 0.018956073855329353 -0.004211623263343836 -0.0014157186122987395 0.00040355295535377287
10.999999999999977 0.038669775600937394 0.01578890572141539 0.01880331424765009 -0.004173364364939043 -0.0016049539910692357 0.0003647359765059137
11.099999999999977 0.03814879129878794 0.016564889736731498 0.0186615654662967 -0.004135460736932439 -0.0012682363792722608 0.00038900997519855196
11.199999999999976 0.03766220665838366 0.01722398323424184 0.018536763349100385 -0.004104542724183858 -0.0012029824468696392 0.00024016961459064854
11.299999999999976 0.037169903679085785 0.017914831839843087 0.01841861351581603 -0.004074065967948398 -0.0011647027949845258 0.00035199805628468385
11.399999999999975 0.036715108167719654 0.01849429647427716 0.018294989466841095 -0.004044501965726161 -0.0012970105015590481 0.0002553506197678718
11.499999999999975 0.036260553403926664 0.019101448120515962 0.018187091496732866 -0.004015691268595176 -0.000893765652593455 0.00030842434935645014
11.599999999999975 0.03584579752175478 0.019590028499150647 0.01807459192587382 -0.003987825916223919 -0.0013023558549534436 0.00025782410261130333
11.699999999999974 0.035433427556279956 0.0201107753726505 0.01798199525226545 -0.003962641923786324 -0.0006241759151208589 0.00024168211777270943
11.799999999999974 0.0350607988518767 0.02050018115785656 0.01788758400669362 -0.0039397744670361745 -0.0011762004217268337 0.00021718064549093927
11.899999999999974 0.03469185495101287 0.020926419672377506 0.017814458275006405 -0.0039202858503336446 -0.00038389491870616504 0.00017330318105325762
11.999999999999973 0.03435705944484483 0.021217176744056855 0.017765522414575984 -0.003909580731395413 -0.0005182996618815428 4.535055256576962e-05
12.099999999999973 0.03402584322000918 0.02154562531618918 0.017708823279527455 -0.003895446319563182 -0.0006357664557431449 0.0002192222282552987
12.199999999999973 0.03373313482421853 0.021752616177571866 0.01765685082666167 -0.0038839159700402286 -0.00041754425344309225 3.6000149828696305e-05
12.299999999999972 0.03344716897440501 0.021983586451428998 0.01760110371247174 -0.003867955414789684 -0.0006675924097180241 0.00025446236666729267
12.399999999999972 0.0332012256735213 0.022106685751139273 0.01755029765030949 -0.00385533736586196 -0.00038589114369088707 3.0000252627803965e-05
12.499999999999972 0.03296041523889522 0.02223855363097401 0.017509372370132815 -0.0038428884149027385 -0.0004062812430013791 0.00018936319684455672
12.599999999999971 0.0327517697695318 0.02227965194740849 0.017484420461333663 -0.003838178565148181 -0.00011677207119245174 -6.451736226336669e-05
12.69999999999997 0.032545636229742075 0.02231847906503808 0.017460590645877103 -0.0038320821476333687 -0.00032577892684155585 0.00015230638542955267
12.79999999999997 0.03236793741335499 0.0222887595865477 0.01744144388244375 -0.0038295550862923033 -9.065029099628262e-05 -6.860758043795762e-05
12.89999999999997 0.032196038960626214 0.022245712683997897 0.01741365324826087 -0.003821851557218793 -0.00042476875594870273 0.0001875533068742397
12.99999999999997 0.032058105831832724 0.02215748777027222 0.017370118379418212 -0.003802526694482612 -0.0004721556792978784 0.00022029262488127975
13.09999999999997 0.03192263111089948 0.022032127739047103 0.01733558407709865 -0.0037970220590923844 -0.0002283530167042803 -9.590914986720868e-05
13.199999999999969 0.031810770701673326 0.021888431612358983 0.01730673357106996 -0.0037893804722944546 -0.00032694191610464036 0.00021016516403672908
13.299999999999969 0.03170502946707188 0.021691106936868966 0.01731566319949586 -0.003796015927762715 0.00045081143603246357 -0.00028799230515550757
13.399999999999968 0.03159376168965157 0.02151011978548305 0.01731526095821251 -0.0037985655148188475 -0.00035604140138931613 0.00016952345293649667
